69 95 57 23 77 83 61 99 93 47 97 79 1 83 21 95 1 79 21 95 81 95 41 95 77 63 41 11 97 79 81 95 57 95 93 71 21 79 57 79 73 95 93 95 93 51 97 95 61 95 1 95 45 59 21 95 1 11 49 95 29 7 93 95 61 79 77 79 81 95 29 79 57 79 5 79 89 99 45 7 65 67 33 79 1 63 93 95 53 63 57 63 1 31 21 99 5 79 77 79 41 63 21 99 1 95 21 99 89 63 93 91 65 87 53 79 77 71 77 35 21 79 77 87 89 63 93 27 21 67 57 75 21 67 89 79 85 63 41 79 41 47 45 27 41 79 97 95 53 83 21 63 77 95 53 39 89 95 1 79 89 47 89 35 81 83 41 79 53 67 53 99 53 63 69 63 53 79 93 79 93 63 77 27 37 99 69 27 89 83 53 99 93 11 65 83 73 47 53 83 49 51 73 67 53 63 53 95 89 67 73 91 89 47 41 43 61 63 53 15 37 27 89 63 57 79 53 63 89 47 89 39 53 99 29 67 77 35 89 99 89 71 37 51 73 51 89 79 53 91 89 63 89 99 37 95 93 83 89 47 57 99 69 55 89 87 97 51 85 79 41 55 25 31 73 35 37 96 66 24 66 92 70 48 74 60 14 76 66 24 34 88 34 92 66 84 86 32 86 32 66 60 74 76 34 68 94 44 66 76 86 48 50 60 66 44 66 92 50 84 66 96 34 12 82 76 86 36 50 88 58 76 82 64 66 96 14 40 66 48 86 92 82 60 86 92 66 76 86 92 66 92 86 92 34 92 66 80 14 32 66 96 78 92 14 44 94 96 50 92 70 52 86 12 54 44 82 60 66 96 18 96 58 92 66 12 66 92 34 76 14 24 66 92 34 60 54 24 74 76 46 76 62 60 18 76 94 76 74 96 66 96 66 40 50 40 14 24 62 60 90 44 66 20 54 92 86 40 18 40 66 92 26 96 18 96 98 24 90 44 78 72 90 12 94 92 98 92 98 92 78 76 70 40 34 100 46 40 70 88 74 92 74 92 50 76 86 44 98 100 98 40 58 28 94 60 38 96 62 80 46 80 18 92 34 64 86 76 98 92 58 60 58 76 94 28 58 64 42 4 66 100 98 96 46 92 18 80 2 88 66 76 38 80 22 76 98 64 46 80 74 80 94 80 42 72 98 80 78 76 94 92 82 20 18 8 34 24 14 96 86 80 58 28 78 16 94 8 54 100 22 36 54 40 97 95 57 27 49 95 1 95 1 83 9 79 1 63 1 95 77 47 21 95 81 95 1 95 21 99 1 79 89 95 1 63 1 95 25 95 1 63 5 95 29 95 21 95 41 95 1 95 1 75 41 95 1 95 41 99 97 95 53 95 77 95 77 95 1 95 97 79 45 95 21 95 93 95 21 95 93 95 1 79 57 79 21 95 77 79 61 79 1 79 49 95 21 87 57 79 41 63 5 95 81 79 77 27 41 79 61 79 65 95 21 99 57 11 41 27 29 63 77 79 57 63 65 11 77 79 93 83 77 79 45 19 89 79 81 11 97 63 61 79 65 79 85 79 25 99 65 79 45 95 89 83 73 87 29 11 89 27 89 67 73 67 89 67 73 99 21 47 21 83 49 59 45 67 65 99 53 63 49 15 97 83 53 83 97 71 93 11 37 47 49 79 25 67 53 67 89 47 53 79 53 67 1 99 53 11 41 63 53 63 89 95 89 11 53 15 53 83 53 67 53 79 53 55 77 7 69 95 73 87 37 51 37 3 53 99 13 27 1 27 89 11 73 47 45 55 93 67 53 83 89 27 85 99 97 87 73 67 25 31 53 99 53 99 89 31 73 31 61 19 77 63 1 79 73 31 37 96 14 92 66 84 66 88 66 28 66 16 14 88 50 36 86 88 34 64 50 92 70 68 66 40 90 92 86 76 50 40 14 56 50 84 66 32 18 68 50 96 66 88 14 88 70 84 14 88 90 96 86 100 66 92 70 80 14 32 82 76 66 8 14 52 66 36 14 76 14 92 66 96 50 92 86 84 90 84 54 64 66 16 90 84 70 64 66 24 86 56 34 92 38 84 70 48 14 76 34 40 70 92 94 76 66 92 98 24 14 52 50 20 70 96 54 92 34 88 78 60 54 52 58 40 74 76 18 76 86 80 50 92 70 92 70 92 74 92 14 64 90 8 66 100 58 92 58 40 54 76 70 92 34 60 90 100 38 40 94 80 66 44 66 24 78 92 50 76 78 92 94 24 42 76 94 76 38 76 34 76 18 92 42 48 90 60 82 40 78 40 50 76 86 40 82 92 54 96 82 92 50 40 78 40 58 100 94 96 54 64 78 100 82 44 6 88 42 100 14 96 78 96 34 96 18 96 86 24 78 60 74 44 42 80 78 28 38 80 74 96 22 40 66 28 98 76 6 44 98 80 74 24 62 60 86 96 82 80 78 100 86 40 74 44 90 76 86 60 46 28 78 40 86 28 74 8 1 95 81 15 77 95 89 55 1 95 25 79 21 79 81 99 1 99 1 51 21 39 45 95 77 95 65 95 57 79 57 79 1 95 5 95 93 95 49 83 93 95 77 95 21 95 81 95 85 95 97 95 97 63 21 47 85 95 89 95 89 95 93 83 97 95 77 79 97 3 93 87 77 59 25 95 77 63 85 95 89 79 53 95 81 95 41 79 21 47 81 99 45 99 41 79 1 51 41 79 97 79 77 79 97 39 53 95 53 83 89 87 37 95 45 27 53 95 97 99 5 83 73 99 93 95 9 99 97 27 89 27 61 79 53 99 29 27 61 79 97 83 85 99 89 79 21 19 77 99 77 79 89 11 61 87 41 67 5 27 5 47 89 83 21 23 21 83 37 91 49 79 89 79 97 47 1 47 81 83 53 27 97 99 93 99 77 87 29 63 53 63 89 99 45 47 53 55 89 47 73 31 29 47 89 79 49 47 53 55 93 67 53 11 93 79 77 87 89 15 53 23 89 63 53 79 53 47 73 55 13 79 93 11 53 43 81 87 89 35 89 75 89 11 53 67 37 99 73 87 53 35 53 67 81 87 37 75 89 47 37 31 73 79 37 67 97 91 89 83 53 99 53 47 81 63 53 40 90 92 98 72 14 92 86 92 86 52 78 56 86 100 74 52 50 24 90 88 34 68 50 72 66 96 90 48 34 68 50 40 66 76 86 88 54 64 14 40 66 28 50 92 66 76 66 68 14 40 34 76 86 92 70 92 70 92 74 40 14 36 18 24 14 88 6 96 34 68 50 92 66 24 50 76 14 48 70 68 18 92 34 48 34 80 50 48 14 92 50 40 58 40 90 64 66 76 50 92 50 92 70 100 86 48 70 92 66 72 86 92 86 92 78 40 82 40 86 8 98 80 70 92 50 28 70 68 90 92 54 92 62 92 50 40 94 92 54 60 74 60 34 40 86 92 46 88 86 92 54 96 82 76 66 76 18 92 14 80 78 40 82 40 14 84 70 100 70 92 82 40 38 60 78 40 70 76 94 76 82 92 54 40 86 88 78 60 6 64 66 76 58 8 54 96 78 76 42 76 70 92 50 12 46 92 82 96 58 24 46 24 50 36 54 72 86 92 74 72 74 76 98 76 82 92 90 100 74 40 22 24 58 64 2 88 58 96 94 60 70 44 66 80 78 76 10 64 74 96 62 32 14 76 98 60 70 64 90 100 26 80 70 80 6 8 78 100 98 44 98 40 50 64 86 8 17 95 1 95 1 95 77 99 57 67 93 99 65 95 5 95 21 95 21 79 45 87 77 79 1 95 57 99 81 95 81 79 97 79 25 95 21 95 1 79 1 99 29 95 5 95 81 95 1 95 61 79 1 95 93 95 85 95 25 95 85 95 65 47 49 95 5 95 5 83 21 95 49 95 1 99 97 79 49 95 13 35 77 79 57 95 77 95 41 99 41 27 21 27 9 79 77 99 57 27 65 63 77 79 85 79 85 79 61 51 41 11 37 27 97 99 77 27 57 83 5 95 65 79 1 11 1 63 41 31 57 99 69 67 89 79 89 79 57 99 53 99 21 31 1 99 65 27 61 27 53 95 69 79 93 71 89 11 89 91 33 63 81 63 73 11 45 83 77 47 89 55 61 95 89 47 57 63 89 27 53 95 37 27 73 83 73 83 77 99 73 95 81 15 49 43 89 35 97 11 53 83 1 27 53 99 53 31 73 83 69 71 53 99 73 47 73 99 93 99 5 91 37 59 69 11 41 79 37 67 77 23 89 91 81 47 89 87 37 91 73 19 53 79 53 71 57 87 61 79 73 51 53 15 77 87 89 35 73 19 37 19 89 95 69 71 85 11 89 51 37 87 97 71 73 35 89 68 50 12 94 48 50 84 82 96 50 68 66 84 66 60 66 60 30 64 66 88 18 48 66 12 90 92 66 88 66 96 66 40 66 84 86 40 74 28 90 76 90 100 66 100 70 100 14 96 66 68 70 88 86 84 66 80 86 52 14 96 86 20 86 8 34 4 90 76 50 92 66 40 86 40 70 12 86 56 98 24 94 92 14 92 66 40 14 96 66 52 86 64 50 96 62 76 14 40 86 92 66 52 86 60 90 24 26 92 90 12 66 92 54 92 50 96 78 92 50 96 86 92 86 92 66 92 86 60 74 92 62 96 14 92 50 40 54 92 50 76 86 92 38 44 86 92 58 40 66 76 46 76 74 92 86 60 86 92 10 40 34 76 34 24 18 76 54 40 58 60 74 76 82 40 58 40 74 92 18 76 34 72 74 24 26 40 70 92 18 8 66 76 98 92 74 92 46 8 46 8 26 76 86 64 6 92 54 8 86 40 98 28 34 60 94 44 98 28 46 76 54 64 50 96 18 60 70 92 98 8 38 28 94 92 46 76 6 52 66 44 70 56 82 72 62 100 82 60 98 96 94 8 98 96 18 80 50 28 94 100 54 80 66 68 34 92 86 60 58 76 54 44 54 60 78 44 57 95 1 95 21 95 1 79 77 95 57 95 97 99 1 95 1 95 61 87 1 95 77 79 1 95 21 95 57 67 21 95 77 79 1 27 1 95 81 95 93 95 97 59 97 99 65 95 57 95 17 91 61 95 5 79 97 95 89 95 57 95 41 27 1 95 21 95 61 79 73 79 21 75 97 95 41 63 97 99 57 95 77 63 25 95 57 95 1 27 9 11 77 95 37 95 57 47 97 63 89 99 49 47 73 79 85 79 9 79 93 99 61 27 57 11 41 79 93 99 77 27 89 99 89 99 81 67 93 95 57 79 1 11 1 27 73 67 89 63 45 83 93 99 89 51 77 27 89 95 57 87 53 63 69 95 81 27 65 51 53 51 81 83 97 83 29 99 89 11 89 99 89 79 85 63 97 79 53 79 53 67 33 67 73 31 53 47 89 47 53 91 65 95 37 27 53 11 89 27 53 75 29 39 37 75 89 51 53 87 89 87 65 11 53 75 77 99 89 87 89 67 77 91 53 71 73 7 77 27 53 51 57 99 61 55 9 91 89 51 77 87 73 87 33 15 89 35 25 83 77 55 73 95 73 79 81 31 73 11 37 99 9 55 89 71 97 71 5 19 53 91 57 79 73 87 5 88 34 92 38 76 66 84 66 68 66 48 86 92 50 92 66 12 90 52 66 68 66 60 66 80 66 72 66 92 74 40 90 84 90 92 34 96 66 88 74 80 66 92 18 64 66 76 66 76 66 100 14 64 66 60 90 64 50 76 34 84 54 40 54 100 86 92 18 92 66 96 38 44 14 8 70 80 66 92 14 92 14 92 66 96 50 100 98 92 14 92 78 36 70 92 54 92 14 76 14 44 50 96 18 60 66 12 86 68 90 96 58 76 34 32 86 40 14 76 98 76 18 92 66 40 14 92 98 100 50 92 18 80 82 60 2 48 70 80 58 76 86 76 94 76 78 44 98 92 50 40 70 92 90 96 70 84 66 100 86 92 18 76 94 92 54 80 14 40 62 96 74 8 58 76 86 44 90 24 34 40 82 8 74 76 90 24 94 92 54 80 54 48 54 20 14 4 58 72 78 40 30 96 90 76 74 8 94 80 74 92 66 36 34 96 98 100 82 76 46 68 50 100 38 24 98 24 90 44 94 64 74 24 98 60 94 76 50 92 38 80 94 88 6 40 70 44 70 72 50 68 46 84 46 24 90 60 98 84 58 80 90 84 74 8 98 100 18 96 62 28 86 60 82 64 94 64 93 75 1 83 1 95 93 95 1 95 1 47 81 27 25 95 1 99 93 83 57 95 1 95 1 95 1 95 89 79 1 95 1 95 1 95 81 95 1 95 93 95 1 79 1 79 21 95 1 63 1 79 21 11 45 95 97 95 65 95 81 63 93 95 93 95 93 83 93 79 81 95 21 99 61 95 5 43 77 95 37 79 93 95 97 31 77 95 89 63 21 27 1 27 73 79 77 79 61 95 97 27 97 79 41 87 37 79 73 99 81 83 61 63 1 27 57 27 89 27 89 79 73 79 21 27 57 27 53 63 57 11 73 63 97 95 93 95 93 47 25 11 81 27 73 27 77 27 73 99 93 63 49 83 97 91 61 67 57 99 37 63 93 11 45 99 93 87 81 79 41 27 53 75 53 27 53 63 57 79 93 35 61 31 53 63 41 71 73 63 53 43 53 63 85 99 89 67 93 51 45 99 53 87 53 47 53 51 93 67 37 63 53 67 89 99 53 63 53 67 53 99 93 91 53 63 37 47 89 71 21 79 93 87 37 87 53 79 37 87 53 87 57 15 45 99 37 55 89 99 53 91 9 55 97 47 85 71 13 67 97 99 53 71 89 35 93 11 53 27 21 67 53 39 53 91 41 56 66 84 66 80 94 96 66 84 66 92 86 52 14 92 18 60 54 8 50 84 66 100 66 84 90 20 66 92 50 60 50 88 98 44 66 84 86 40 86 60 66 92 94 92 66 96 50 76 66 56 66 52 14 76 66 92 2 76 86 60 34 76 78 92 66 92 66 96 66 76 14 64 50 84 54 60 70 40 50 92 66 88 14 92 38 40 14 40 86 92 66 76 50 92 50 100 70 92 86 76 14 40 50 64 66 92 18 64 74 92 14 96 74 92 94 92 94 92 86 40 90 24 98 92 18 76 58 96 14 60 82 92 34 92 66 92 70 52 94 92 90 76 90 92 94 92 86 24 94 76 74 92 58 76 66 8 34 60 70 40 14 76 2 40 78 44 2 92 70 60 54 76 38 60 78 92 34 44 22 40 2 92 42 80 58 80 86 24 82 92 54 76 26 8 54 68 78 24 78 8 58 88 82 76 22 76 78 76 94 40 62 76 78 44 82 28 82 44 94 44 14 8 82 24 18 76 70 80 38 60 58 28 42 44 78 24 42 28 90 44 58 8 14 60 78 8 98 96 26 44 78 80 54 76 66 92 78 28 82 24 62 64 82 96 78 76 94 64 94 64 86 24 46 68 90 44 21 63 81 79 41 71 61 79 21 95 41 59 65 95 1 79 1 95 61 95 1 95 1 63 1 95 93 95 1 95 89 95 89 95 1 95 97 79 93 99 21 95 1 95 93 95 41 95 25 95 21 79 57 95 1 63 21 95 21 95 73 79 1 95 97 95 21 95 89 79 77 95 5 79 65 95 49 95 37 95 77 47 53 79 5 95 53 87 73 95 89 95 5 95 25 79 41 47 53 79 57 39 33 63 61 87 93 79 41 99 29 87 53 95 85 63 97 95 37 95 53 27 97 27 53 27 5 79 97 27 89 59 61 63 41 3 45 79 89 87 97 47 37 95 17 95 21 63 89 83 25 11 81 79 53 27 89 11 89 79 69 39 97 95 57 99 85 63 53 83 77 47 77 63 9 79 37 95 53 63 57 47 21 95 89 11 89 31 53 63 89 79 89 15 89 19 49 7 53 71 89 83 53 47 53 79 53 51 1 51 53 87 77 87 73 15 89 79 69 31 53 71 53 99 73 95 89 55 53 67 49 99 93 15 89 71 53 63 37 95 37 87 73 35 89 19 49 99 53 71 37 31 53 55 53 91 41 3 93 35 37 51 97 79 77 71 89 3 89 99 37 79 89 99 89 67 89 84 66 92 66 64 86 84 66 24 66 52 58 12 66 52 66 40 54 84 70 92 86 92 66 32 74 20 50 76 66 48 66 88 66 92 50 96 90 60 18 24 66 12 62 52 18 92 66 40 54 96 62 48 90 92 86 24 50 44 14 76 66 80 14 76 14 48 58 76 86 68 66 60 70 92 54 92 14 92 14 40 78 96 14 96 50 92 70 92 14 92 50 92 14 8 90 76 86 92 58 92 66 92 14 64 98 60 70 40 94 92 70 76 66 96 94 80 50 76 54 40 74 92 66 76 34 24 74 92 34 76 90 60 54 92 98 40 22 40 74 92 14 92 50 92 26 76 94 76 70 92 70 40 66 92 70 40 90 80 86 32 34 64 18 40 38 96 94 40 86 40 94 32 58 28 58 80 78 40 86 40 46 76 98 96 18 24 50 76 10 24 6 76 2 92 94 60 98 60 50 8 18 76 54 40 78 60 42 8 74 96 6 76 94 40 2 96 74 44 26 92 98 24 70 96 70 56 90 68 90 8 66 44 82 76 94 92 70 64 18 40 70 88 18 80 82 80 58 44 42 80 98 60 66 64 78 80 82 28 98 76 98 60 78 8 62 80 46 92 46 64 94 80 54 92 22 32 21 95 29 79 21 99 1 95 41 63 69 95 1 95 5 95 1 79 41 95 57 95 1 83 1 99 73 95 29 95 1 79 93 63 21 95 61 95 61 95 77 95 1 27 41 95 81 79 1 95 1 95 97 95 1 95 77 95 21 95 21 47 57 95 65 27 1 95 93 95 57 95 93 95 21 95 93 95 5 79 89 79 57 47 1 91 89 79 73 79 61 79 57 79 77 79 1 99 25 79 25 79 93 79 57 27 81 91 93 55 89 99 93 79 65 99 93 99 97 95 89 79 73 71 73 27 93 95 65 11 57 83 89 27 93 99 61 51 49 83 37 27 21 47 53 63 97 27 89 83 57 27 89 87 93 99 93 91 77 99 53 27 93 99 93 47 73 91 45 47 57 19 53 99 89 27 37 99 89 79 53 35 53 63 53 67 77 23 93 87 37 67 73 23 53 27 89 47 93 51 89 99 89 31 89 31 53 47 53 23 89 11 53 83 73 99 89 87 89 95 53 19 53 79 53 79 89 47 53 51 37 71 65 87 73 83 9 63 53 59 21 95 53 87 37 83 97 87 37 99 61 71 53 63 13 83 25 91 41 67 93 47 53 39 57 67 49 15 37 83 37 67 37 55 89 31 77 76 66 100 78 92 62 40 66 76 66 84 66 76 66 36 66 84 34 88 98 68 66 80 34 16 66 88 98 76 66 84 90 12 42 80 50 76 14 88 30 96 66 32 6 96 14 76 66 80 50 16 74 72 78 92 66 92 14 72 50 84 66 60 50 28 86 68 90 68 66 68 14 92 86 88 86 96 58 76 78 60 50 8 70 32 18 16 66 92 86 48 38 92 86 92 78 92 66 92 82 88 70 80 14 60 78 92 18 92 14 92 58 92 18 76 58 76 90 92 74 40 50 76 74 92 90 80 82 48 34 76 42 100 98 92 46 92 66 80 50 92 42 48 54 92 98 92 38 52 58 76 74 92 42 40 86 44 34 92 22 24 66 40 86 92 82 92 66 24 34 60 22 92 90 92 2 84 18 40 98 40 38 76 78 76 70 24 90 24 46 92 22 40 58 24 42 92 86 28 70 24 74 40 70 40 74 24 2 92 54 40 82 24 74 44 74 8 98 60 94 64 62 80 70 96 94 92 98 28 94 92 66 76 54 60 42 60 62 64 58 92 26 24 94 24 70 60 42 44 46 80 82 8 26 88 62 28 66 44 70 8 42 60 82 60 82 8 78 84 14 96 10 44 66 60 46 80 21 95 1 3 41 59 57 63 73 31 41 95 21 67 61 79 93 99 77 79 41 39 1 79 21 51 1 79 97 95 57 95 1 79 21 95 1 95 57 99 1 95 1 95 1 79 93 95 1 95 73 95 25 95 25 95 21 95 93 95 93 95 1 95 1 95 41 95 77 95 97 31 5 79 61 91 57 95 93 79 97 63 57 79 25 63 57 63 77 87 25 95 93 79 57 95 81 67 93 79 93 63 41 79 25 79 45 95 85 99 49 27 41 47 97 27 57 27 93 79 25 27 41 47 37 95 73 27 81 27 97 99 53 47 37 79 13 99 53 27 97 11 93 27 45 79 89 67 21 27 89 95 29 95 25 63 61 99 81 27 33 95 53 51 61 79 77 99 53 83 57 11 73 99 89 47 97 51 53 23 61 99 53 87 89 47 57 51 89 99 53 63 77 67 53 79 53 47 89 83 89 63 37 47 69 83 53 51 73 51 89 83 37 27 53 71 89 67 53 31 53 83 73 15 73 95 73 71 73 83 97 75 73 27 69 35 89 63 37 99 89 71 89 35 89 99 37 63 73 47 21 79 53 95 53 51 89 91 37 31 89 63 37 71 53 75 73 11 73 51 97 19 73 83 53 83 89 80 98 88 66 52 70 80 66 52 86 92 38 88 14 48 54 52 66 92 18 84 74 68 66 84 66 76 66 92 50 80 42 52 74 32 98 40 50 68 34 56 66 16 90 92 66 92 98 96 66 60 66 12 50 84 86 60 86 76 66 32 86 76 86 92 86 68 70 32 14 92 50 96 62 80 82 76 18 84 86 92 50 32 14 64 14 84 86 92 86 88 14 68 58 76 78 28 50 100 14 80 66 92 86 40 26 84 50 92 78 52 50 96 86 92 90 76 6 60 38 92 86 36 34 92 70 92 70 92 74 96 14 92 38 12 86 92 50 76 50 8 66 40 34 92 90 76 18 92 66 40 94 40 54 68 2 24 22 24 86 76 90 76 10 76 18 84 90 40 54 40 18 24 98 40 78 24 70 80 94 24 90 44 50 24 54 40 66 92 66 96 54 40 78 52 90 60 34 24 90 60 38 76 70 24 38 60 62 92 10 8 58 24 98 76 34 100 66 16 94 92 58 24 50 100 14 64 82 88 58 76 54 88 58 8 42 28 26 96 58 92 54 28 74 92 70 60 38 60 86 96 74 60 58 68 58 32 50 92 74 96 74 28 70 68 82 96 50 96 74 96 98 100 46 24 50 96 93 99 1 95 1 95 45 75 97 11 93 99 57 99 1 95 1 79 77 63 65 95 1 95 1 79 21 79 1 19 1 95 1 79 1 95 1 23 21 95 41 95 41 95 93 95 57 95 5 63 77 95 1 79 77 95 65 95 21 79 5 63 41 95 1 95 77 95 1 95 45 95 53 79 21 67 97 79 93 27 21 79 61 79 77 63 49 79 77 87 21 79 25 95 93 79 41 83 45 99 97 27 97 95 77 63 45 11 45 63 65 27 89 99 69 99 97 71 85 47 69 99 93 27 89 31 89 19 89 79 93 99 69 63 57 23 81 63 65 95 41 99 89 95 41 15 93 51 69 27 97 95 89 27 25 95 53 79 97 91 73 83 89 79 53 27 29 27 57 11 77 83 69 11 21 99 73 95 73 27 53 47 65 35 89 63 89 99 89 11 93 79 53 15 49 31 89 31 53 99 85 67 81 51 73 67 81 79 89 71 37 99 73 87 89 87 53 63 53 87 77 99 53 87 5 15 97 95 89 83 69 99 53 83 53 15 53 79 53 83 89 31 53 87 37 27 53 47 1 87 37 87 77 71 89 99 89 67 37 55 53 99 53 95 29 11 37 27 37 95 73 31 69 15 69 15 89 84 50 32 70 20 34 80 66 84 14 96 98 76 66 88 66 96 66 92 66 92 66 24 14 4 66 52 66 24 66 76 66 44 90 8 50 60 66 100 66 80 50 96 66 84 74 92 86 96 50 96 34 96 66 72 58 100 26 92 66 32 14 40 66 76 74 92 50 76 74 92 38 44 50 60 70 96 22 76 18 80 50 76 66 92 50 76 78 92 14 52 50 92 70 76 50 92 70 76 58 92 78 92 50 92 58 80 46 92 82 92 18 64 34 96 50 92 18 68 54 44 82 68 22 76 38 92 18 92 70 100 54 92 94 76 18 60 90 40 74 92 86 44 74 96 82 60 66 96 38 100 14 60 42 76 38 40 38 24 34 76 62 40 98 96 50 76 74 44 74 92 86 40 70 92 46 40 58 92 46 36 98 92 98 96 86 24 78 92 26 48 22 68 98 64 50 80 50 64 82 76 86 24 74 24 90 80 82 92 26 44 74 60 86 60 66 96 50 96 10 64 82 60 98 80 54 76 46 96 94 76 82 92 90 44 94 8 94 60 58 100 70 44 94 92 30 44 82 80 94 76 78 40 90 64 18 28 58 100 58 72 34 96 74 60 50 28 94 60 26 8 94 24 50 64 22 96 77 51 21 99 93 11 41 99 93 79 1 95 57 91 57 95 77 95 1 99 13 15 93 95 1 95 85 95 17 79 1 95 93 95 1 95 1 47 57 55 1 95 1 95 77 95 1 83 1 95 21 67 41 95 77 95 21 27 65 95 21 95 45 95 61 95 57 95 57 95 21 95 41 79 93 83 93 95 5 79 77 79 85 95 93 87 77 79 49 79 61 95 5 27 57 95 45 63 89 79 1 99 25 47 97 27 65 95 97 47 89 79 57 99 57 95 5 79 73 63 93 67 77 79 89 27 41 63 57 27 37 27 41 99 45 31 65 99 57 63 93 11 1 83 53 51 69 11 49 63 25 27 25 63 29 27 89 63 73 99 93 99 93 99 89 11 53 99 69 27 93 99 53 27 29 99 77 31 89 79 89 71 37 27 53 39 53 83 89 31 53 51 53 83 93 79 89 47 53 67 93 51 53 71 53 79 53 67 37 11 53 79 89 47 89 99 21 71 65 75 73 47 53 71 81 95 53 91 53 63 37 83 53 15 53 83 89 31 53 31 37 99 37 59 73 99 57 11 53 19 89 15 53 63 37 55 73 31 89 35 57 63 73 83 89 71 89 31 89 95 73 79 81 67 37 47 97 88 98 100 66 20 86 44 14 96 66 96 66 52 82 64 66 68 66 84 66 92 14 40 66 68 66 68 50 96 86 76 66 96 66 100 86 32 66 52 66 44 50 80 66 68 66 88 66 32 50 92 90 24 66 68 66 76 66 68 14 44 58 92 54 80 66 8 66 92 42 76 66 60 90 32 66 76 66 96 82 24 14 92 66 92 66 48 34 44 90 72 50 92 14 72 98 84 98 60 2 92 70 92 34 44 78 100 66 60 62 96 62 84 14 88 50 92 34 92 86 92 50 92 86 76 98 96 50 92 34 60 90 76 54 100 34 76 38 80 22 92 10 72 70 92 74 92 90 92 58 40 58 76 94 76 54 40 70 40 66 40 18 100 54 76 34 76 38 40 94 92 70 84 86 76 74 40 70 24 94 24 62 40 18 40 90 40 70 24 66 24 98 40 98 80 18 60 66 80 86 76 38 64 50 40 50 40 82 8 26 8 46 16 66 24 50 96 62 60 78 8 74 80 66 80 78 8 38 24 82 8 26 24 62 44 86 84 78 24 62 28 58 44 66 60 98 8 10 24 74 96 42 64 78 8 62 92 18 60 70 80 22 28 74 28 98 8 70 40 58 28 78 44 90 44 70 80 73 47 77 95 41 47 33 95 1 99 1 95 81 95 77 95 1 95 1 95 57 95 1 95 57 95 1 95 1 95 1 95 77 95 1 95 1 95 1 95 25 95 97 95 57 95 1 95 1 79 77 95 93 95 81 95 65 95 1 95 1 95 57 95 1 95 93 95 1 95 61 95 57 99 21 95 97 79 93 95 93 79 57 79 61 99 97 95 85 95 25 95 1 27 1 63 77 63 97 99 41 95 1 95 57 63 21 63 69 79 81 79 1 63 53 31 93 79 21 27 5 27 65 99 57 79 53 99 89 27 97 79 41 83 37 27 45 87 41 39 89 79 29 27 77 67 77 83 25 83 53 27 29 99 21 47 53 47 61 99 53 47 77 27 93 79 53 27 73 31 41 31 53 47 89 27 53 35 89 27 53 99 53 95 81 67 53 99 37 51 73 83 53 47 53 71 89 31 53 11 53 83 93 99 73 63 89 91 53 47 93 83 53 83 89 7 89 95 53 51 57 11 77 95 37 99 89 79 53 79 1 51 37 83 53 99 37 47 73 27 89 99 53 91 37 19 89 79 89 51 81 31 73 87 37 87 73 91 53 63 93 79 37 27 89 47 53 51 73 75 53 99 53 99 89 3 89 52 86 88 66 84 66 60 66 64 34 92 50 96 86 76 66 12 66 64 66 48 66 60 54 40 34 84 66 76 66 40 66 92 66 96 66 84 66 80 50 92 66 48 14 72 18 24 66 32 34 92 66 92 58 92 66 92 86 12 66 84 66 80 26 100 70 60 14 64 14 76 34 92 34 92 14 16 86 92 14 60 66 80 58 92 14 40 14 68 70 40 50 92 14 28 70 92 66 68 26 80 50 16 66 96 90 96 34 40 14 92 50 40 86 92 66 68 14 92 50 92 50 92 58 92 98 40 70 92 62 92 54 92 70 92 86 80 22 24 34 92 54 40 78 76 54 60 26 40 42 76 18 40 90 84 50 92 70 92 90 40 86 76 66 40 6 24 98 76 22 40 46 76 18 76 66 60 86 40 58 40 70 44 82 40 18 60 58 80 62 76 54 92 82 76 58 44 38 24 94 40 78 64 98 92 78 56 94 96 62 60 74 60 74 24 90 8 58 96 78 24 58 40 46 28 98 24 82 80 18 64 6 60 74 24 86 60 90 24 94 44 46 76 70 64 10 40 42 96 86 96 98 56 82 36 78 76 82 100 66 100 66 76 70 32 62 8 82 44 22 96 26 100 54 60 94 96 1 79 1 79 93 35 93 99 89 79 57 95 77 79 1 79 1 83 1 95 1 3 1 79 41 99 1 95 1 95 97 95 97 95 57 95 21 55 93 79 21 95 1 95 5 95 21 95 21 79 97 95 93 95 1 95 93 95 89 95 13 95 97 99 61 95 1 15 85 79 77 79 45 87 5 95 1 63 77 79 41 79 41 95 77 79 93 99 89 79 89 63 89 95 1 79 77 79 41 79 1 79 5 47 93 27 89 79 41 79 97 27 89 63 89 95 97 63 93 27 61 27 89 27 89 99 89 23 89 27 1 27 97 27 97 99 73 27 41 27 5 83 45 27 21 27 93 63 21 27 77 11 53 83 1 47 53 79 73 99 97 35 61 95 1 95 37 47 89 15 73 95 53 47 89 27 77 71 93 11 81 95 45 11 53 99 89 31 53 83 53 83 21 67 89 83 53 95 61 11 57 31 9 47 37 67 37 27 73 95 53 63 89 87 89 63 53 99 53 63 29 15 89 15 73 47 89 67 57 95 53 47 69 83 37 75 53 91 37 99 89 87 53 99 41 87 49 59 89 51 53 71 49 83 77 91 73 35 57 99 97 31 25 67 81 99 37 63 73 79 73 91 37 55 37 91 97 8 86 12 66 92 86 28 66 92 90 84 86 96 66 80 82 96 90 76 66 100 86 80 66 88 82 32 66 72 66 88 46 60 66 68 86 52 66 60 82 68 66 92 90 64 34 12 66 96 18 48 50 68 66 88 98 60 66 84 66 48 34 40 66 92 14 100 86 92 70 92 58 40 98 88 50 36 50 92 14 76 14 40 94 64 14 64 14 12 70 92 14 40 78 80 50 92 14 92 34 60 50 92 62 92 18 92 70 96 50 92 70 92 62 76 50 88 90 76 6 76 70 60 14 92 22 92 86 80 66 68 86 92 54 92 42 92 66 76 14 92 14 92 50 32 58 80 70 92 38 80 62 76 70 76 82 92 90 20 82 40 14 40 14 76 14 40 70 40 90 40 2 40 98 76 90 40 82 92 90 84 66 40 74 92 14 76 86 60 90 40 82 96 82 36 34 40 58 24 46 44 58 40 78 96 66 24 90 8 26 96 70 60 54 24 86 96 58 40 90 64 90 100 78 76 94 92 70 44 78 76 98 92 46 92 62 52 78 28 78 96 6 96 74 40 22 92 90 96 18 8 10 44 66 76 50 96 98 44 82 64 94 44 82 60 62 44 46 76 50 64 74 84 82 8 86 96 29 99 57 27 1 95 73 99 1 95 21 95 1 95 21 95 1 95 93 95 93 79 1 79 77 95 1 99 1 95 57 95 1 95 61 95 93 95 1 95 93 95 1 95 93 79 57 95 1 95 57 95 97 95 21 95 93 95 5 95 21 95 61 79 77 95 1 95 81 95 61 95 93 79 21 79 1 79 1 79 53 79 21 79 89 79 81 63 93 35 1 79 1 63 77 79 77 27 65 31 77 35 97 27 77 99 85 79 61 79 37 67 89 99 69 27 25 27 97 27 93 27 89 27 25 31 85 63 93 27 25 27 1 63 25 27 93 27 93 47 73 83 97 47 41 99 97 27 77 11 89 83 1 31 61 63 89 95 33 31 77 47 13 83 73 67 97 99 89 71 89 79 73 11 21 99 73 47 89 71 53 63 45 67 89 51 53 83 1 27 49 27 53 83 89 67 53 15 53 47 17 83 89 95 73 95 53 83 53 83 53 27 89 99 37 43 53 47 53 95 53 99 89 47 53 51 89 19 37 67 53 27 37 47 53 51 73 19 37 87 37 79 37 35 81 51 53 51 37 27 53 79 73 79 81 91 89 67 37 27 49 83 73 71 89 79 89 87 81 55 25 83 5 99 89 87 53 68 86 68 66 92 62 80 66 88 86 36 42 60 18 40 70 84 66 80 74 68 66 48 50 68 34 56 50 92 94 60 66 92 66 76 66 60 66 68 66 88 66 48 66 44 54 40 66 92 86 92 66 80 66 76 66 24 34 56 50 68 14 92 50 52 66 92 66 76 62 100 50 76 14 92 14 24 14 92 50 96 86 80 50 76 14 76 82 60 30 48 14 96 70 100 14 84 66 92 38 92 70 68 70 92 86 92 18 92 70 92 66 44 82 24 50 76 78 92 34 92 50 92 50 92 74 92 58 64 50 84 66 92 26 76 50 96 94 76 98 92 34 92 50 40 2 92 70 40 78 100 2 40 78 96 34 76 38 60 70 40 90 24 90 40 94 44 54 28 50 40 86 40 54 60 86 96 86 60 34 76 94 92 86 76 78 76 42 92 66 76 90 48 98 96 78 40 26 8 98 24 90 60 70 60 98 60 18 64 82 8 66 24 22 80 90 96 58 96 26 60 78 24 58 40 54 76 54 60 38 8 50 96 62 96 98 88 50 28 94 80 50 96 42 8 70 80 98 8 74 28 98 64 90 8 10 40 62 8 90 96 70 80 70 80 98 96 6 8 82 80 98 60 78 92 78 80 93 95 45 79 1 83 77 95 93 79 1 95 1 99 57 95 81 79 1 95 89 95 1 63 1 99 1 79 1 95 1 95 1 95 1 79 1 79 21 95 21 95 21 95 1 95 1 95 1 95 1 95 77 95 89 99 5 95 21 95 57 95 1 95 1 95 1 95 77 95 61 83 93 47 93 95 9 63 21 79 41 95 93 39 21 79 41 79 25 63 93 63 49 63 1 79 57 95 61 63 93 79 89 79 89 27 5 31 53 99 77 95 77 43 93 27 21 79 93 27 97 27 89 27 85 27 41 27 45 51 9 11 37 27 77 11 65 63 93 63 5 47 65 83 97 91 89 95 89 47 57 79 37 99 53 99 81 63 89 95 89 11 93 47 53 27 53 71 97 47 25 99 85 47 73 79 53 27 89 99 77 71 53 31 53 47 73 11 57 47 53 83 89 3 53 27 53 51 53 51 89 87 73 71 53 47 37 87 53 35 37 27 25 95 53 91 37 11 53 91 89 31 89 27 53 51 53 63 97 31 37 63 89 83 53 87 37 95 89 99 53 83 89 47 89 27 53 51 73 67 45 83 33 63 97 47 53 47 65 71 53 91 73 95 73 63 57 31 73 51 61 91 53 27 81 87 81 96 66 84 74 96 66 84 86 88 66 84 66 48 66 84 50 52 66 96 66 48 98 92 66 12 66 60 66 92 94 20 66 92 66 96 86 68 66 92 38 92 66 12 66 24 66 44 66 40 82 96 66 44 66 84 66 68 94 100 66 92 14 28 54 80 50 8 14 76 14 28 14 100 42 76 86 100 98 76 66 92 14 84 14 88 50 96 86 64 14 96 70 92 70 92 50 92 50 92 30 96 14 76 34 40 50 96 2 92 18 76 66 92 34 96 70 92 50 92 98 92 26 32 74 92 66 92 14 76 94 64 34 76 86 52 90 92 70 92 86 92 94 96 54 60 42 44 70 76 66 40 90 40 94 40 58 96 74 100 82 92 22 80 50 40 74 40 34 40 74 100 90 96 70 96 94 40 6 96 38 92 70 40 90 40 94 44 94 60 74 60 78 60 26 76 90 96 82 60 50 44 50 40 74 92 34 8 34 96 82 8 74 88 94 8 58 72 38 88 98 44 22 64 66 96 42 80 78 96 46 80 58 92 62 44 94 8 46 60 94 96 62 76 74 44 6 80 82 40 86 40 66 80 62 8 38 92 82 100 30 84 98 8 62 8 86 92 82 60 2 64 74 8 66 80 58 76 97 95 57 95 1 95 1 79 97 87 57 95 93 55 77 79 1 79 93 95 1 7 1 95 1 95 1 95 1 79 93 95 1 31 1 95 93 95 1 95 1 95 41 95 97 63 5 95 1 95 1 95 1 39 21 95 57 95 21 95 21 95 77 95 5 99 97 79 93 95 57 79 57 79 93 79 81 27 81 95 77 31 57 95 93 95 21 79 57 67 53 95 77 79 5 79 21 79 37 95 81 79 77 95 93 67 41 79 21 27 77 27 17 79 25 27 41 27 1 11 97 47 89 27 41 27 45 63 85 99 37 95 77 79 21 83 37 27 77 27 45 27 85 47 25 11 53 63 77 63 29 79 93 67 53 27 45 27 57 63 89 63 89 31 57 83 77 83 37 87 25 27 89 83 57 11 37 91 89 35 53 11 89 63 73 99 93 83 61 79 73 91 73 91 89 11 53 87 37 35 53 99 53 71 5 67 53 11 53 71 53 99 89 87 53 95 73 67 53 31 37 47 93 95 53 67 89 95 53 83 73 83 61 95 89 63 37 99 41 83 37 71 37 99 37 51 37 31 37 31 89 51 89 51 53 83 37 43 37 99 53 63 37 67 73 95 53 15 89 99 89 87 81 31 37 35 37 8 90 84 66 60 50 92 66 68 66 96 90 36 66 88 66 72 86 32 54 92 66 52 34 80 66 92 66 96 66 16 66 48 70 32 66 60 34 64 66 16 18 92 50 12 66 92 66 40 50 92 34 60 66 68 42 96 14 96 14 76 66 12 50 88 86 68 50 16 14 80 50 92 18 92 14 92 86 52 66 60 66 40 14 40 14 92 50 96 14 92 50 92 74 92 86 92 14 96 66 40 54 16 70 92 50 92 90 92 54 76 86 76 54 92 46 100 66 92 86 92 70 40 18 92 70 92 18 92 18 24 34 76 54 92 58 96 90 92 70 80 66 8 70 40 18 92 70 24 86 40 22 96 70 96 18 92 54 84 34 92 70 40 94 92 42 40 18 52 34 40 90 76 66 40 22 80 70 92 54 44 78 60 50 44 58 92 90 40 42 24 58 96 94 8 38 24 78 8 34 92 90 60 90 92 42 96 90 24 74 24 82 44 50 8 14 8 38 44 94 60 62 96 58 96 82 60 98 88 86 96 34 76 42 92 58 28 90 24 74 80 14 96 62 80 50 96 58 96 90 96 94 44 90 68 54 100 50 24 98 8 46 92 94 92 82 8 82 76 62 24 86 92 82 96 46 76 57 99 77 63 1 35 5 95 1 87 1 95 21 95 93 51 25 99 21 95 1 79 85 95 1 7 1 83 1 95 1 95 1 95 85 95 41 95 1 95 21 95 1 95 77 95 93 79 1 95 1 83 93 95 57 95 45 95 41 79 21 95 77 95 57 79 77 95 61 95 85 79 1 95 41 95 93 79 57 79 41 79 93 79 69 79 25 79 57 95 41 63 77 27 29 79 77 99 93 11 21 79 1 95 5 63 77 63 93 79 93 27 21 83 61 27 89 27 5 79 93 99 41 79 73 67 25 83 89 67 9 11 21 63 57 99 81 83 89 63 89 27 65 99 93 47 93 67 41 11 45 67 1 79 5 95 77 63 89 11 89 11 89 83 73 63 9 15 1 31 77 47 53 99 53 63 73 95 89 63 89 35 37 83 89 71 57 95 53 11 53 31 89 51 53 99 89 31 89 87 53 67 53 79 53 51 53 91 5 15 89 67 53 99 37 35 53 99 37 47 53 47 73 99 73 83 37 55 89 63 81 27 9 43 81 71 53 11 69 55 89 31 77 95 73 91 37 67 53 15 37 67 37 83 89 67 89 27 29 19 37 99 81 83 53 87 77 71 89 95 37 79 37 27 69 15 29 64 86 68 38 88 14 72 50 36 90 48 66 60 66 92 66 84 66 60 78 92 66 96 86 48 86 76 66 92 70 100 66 76 66 68 66 96 94 84 66 32 94 68 66 60 66 88 50 16 86 68 66 76 50 32 86 96 66 68 90 96 66 40 50 60 70 92 50 68 50 100 50 92 70 84 14 80 66 92 38 68 70 60 86 64 66 40 14 92 66 96 66 64 54 80 14 76 66 100 50 40 62 48 70 76 66 76 86 92 90 92 54 76 18 84 18 92 70 76 70 96 34 92 58 92 46 92 78 40 74 92 90 92 14 92 50 92 86 32 66 60 98 92 38 76 70 76 2 60 70 60 90 40 90 76 86 92 94 24 98 88 22 40 54 76 18 96 14 32 54 40 90 40 78 96 2 24 86 60 90 76 74 80 58 40 50 60 74 60 2 40 82 24 58 60 66 40 74 100 70 80 62 100 50 64 82 24 22 8 22 80 18 20 74 96 98 8 34 64 70 8 54 8 62 40 18 24 66 8 54 24 46 96 14 80 42 40 2 24 34 76 78 8 86 100 6 100 54 88 58 96 66 40 98 40 98 60 58 92 46 92 98 80 34 56 74 80 54 8 82 40 18 8 38 44 94 64 57 95 57 87 57 83 1 47 93 95 97 47 1 95 97 95 1 95 1 99 1 95 93 83 1 95 1 95 21 95 1 95 1 95 41 83 57 95 1 95 1 95 1 95 1 95 1 95 1 95 93 95 21 95 5 95 41 95 77 31 97 95 21 95 57 79 77 95 49 99 21 95 21 99 41 95 25 87 21 79 5 95 25 95 77 79 93 79 93 99 21 79 5 79 5 99 97 95 61 79 25 79 73 63 89 27 45 79 77 79 5 63 85 87 93 63 53 27 89 27 77 63 57 27 41 27 77 27 21 27 77 27 45 27 93 99 57 31 5 63 41 83 53 63 73 55 97 27 61 95 61 99 49 63 21 79 49 11 97 11 89 63 89 31 53 99 53 11 53 11 37 91 77 63 81 47 89 63 25 71 37 27 65 51 89 83 53 83 89 27 53 27 89 83 89 99 89 55 89 83 1 43 89 83 89 83 53 43 53 91 57 67 53 79 53 47 53 59 53 51 73 99 73 27 53 87 89 27 89 31 57 91 89 19 73 43 37 55 61 31 37 67 37 99 73 71 73 63 9 95 65 35 13 63 53 91 89 99 37 51 89 87 73 63 37 51 81 15 97 87 81 51 89 51 89 63 53 80 66 100 26 96 90 96 66 28 94 76 38 52 66 40 86 80 66 52 66 84 66 68 66 88 54 84 86 40 66 40 66 88 62 92 66 88 86 64 66 84 66 88 66 24 66 44 66 92 66 92 50 44 66 16 54 48 66 72 34 56 50 100 90 92 14 92 2 88 66 92 14 76 14 84 66 88 50 92 66 100 14 72 50 100 50 76 70 100 90 96 66 92 50 92 94 76 86 92 62 40 14 92 70 92 34 96 70 92 50 60 74 92 34 60 14 92 38 24 70 92 54 92 34 92 74 92 54 68 6 92 54 92 86 92 90 96 86 96 2 92 94 92 70 92 54 60 66 76 70 64 50 40 50 76 54 80 58 92 2 96 94 76 94 40 46 92 14 92 2 40 94 40 50 40 86 92 50 24 82 68 50 24 34 24 62 88 2 44 70 24 74 100 42 96 78 80 38 96 78 60 22 24 74 80 42 24 90 40 98 100 42 24 90 76 46 20 22 96 94 60 62 44 66 28 42 24 98 76 86 96 74 80 90 8 90 28 94 100 70 8 78 8 82 76 26 28 94 44 34 76 54 80 98 40 38 8 82 40 74 28 34 28 78 96 86 80 74 24 90 80 98 96 82 52 46 28 1 47 1 95 93 19 41 95 57 99 1 95 57 95 25 95 1 95 57 95 1 99 1 95 1 95 5 95 1 95 1 95 1 79 1 95 61 83 1 47 21 95 1 95 81 95 97 79 5 95 93 95 1 95 21 95 21 95 93 63 21 79 1 79 1 95 73 79 89 79 25 79 97 79 41 79 25 95 21 95 45 79 5 79 61 27 17 79 93 79 89 79 57 79 89 79 89 47 21 79 93 79 57 79 21 79 97 87 41 79 21 63 33 27 85 27 97 63 45 83 13 99 81 99 57 27 45 27 57 63 61 63 85 63 9 27 81 95 77 11 29 71 93 95 89 99 77 7 73 83 77 47 93 95 85 67 93 99 73 79 89 99 89 99 81 67 81 11 89 11 57 71 53 63 53 95 73 31 33 63 53 47 89 55 89 63 89 71 53 47 89 87 89 31 61 99 45 71 53 99 53 31 89 75 53 99 53 71 53 67 89 15 53 27 53 67 53 91 53 27 53 99 53 83 53 87 37 51 53 91 73 91 25 31 53 31 93 51 53 35 53 55 73 99 53 71 61 99 53 35 53 87 89 31 37 67 97 99 65 83 37 83 21 47 73 83 73 95 37 51 89 63 89 99 73 31 73 88 66 80 66 40 66 96 66 92 74 76 86 100 58 48 66 84 66 48 66 12 66 88 66 48 38 84 66 56 66 52 66 92 66 84 38 92 66 48 66 88 66 96 66 88 66 40 58 36 14 100 66 84 66 40 66 64 66 72 50 24 66 32 70 96 70 84 50 20 14 96 50 12 14 96 50 76 86 92 14 16 58 96 14 60 70 20 14 80 70 84 50 52 34 92 54 68 50 92 70 92 14 84 66 92 34 76 66 92 34 60 50 48 30 60 34 92 66 92 86 92 50 92 34 92 18 92 46 92 74 92 18 92 50 92 90 92 2 80 98 44 14 92 86 76 34 96 50 92 38 76 38 92 90 76 54 40 66 40 58 40 90 40 62 40 86 84 18 40 70 40 58 60 90 40 46 40 82 60 90 96 18 40 46 80 54 24 70 96 90 28 58 44 22 8 86 76 58 76 26 64 78 44 58 28 38 44 94 44 22 40 86 80 10 44 78 8 26 8 90 8 2 24 58 16 54 8 90 96 90 28 98 96 86 24 86 92 50 96 94 80 26 96 54 92 90 60 86 60 90 76 90 64 46 24 46 96 46 80 6 100 78 68 62 76 86 28 14 28 82 64 42 100 46 56 42 100 21 95 57 95 97 79 1 95 89 99 57 95 57 63 9 99 73 79 1 95 1 79 97 99 1 99 21 63 1 63 57 95 1 95 1 95 21 79 1 95 89 95 5 95 21 95 57 95 73 95 85 95 77 95 65 95 17 95 85 95 21 95 93 95 61 95 5 95 1 95 57 79 89 47 9 79 57 79 5 95 81 27 5 99 21 79 77 79 5 79 77 79 77 79 93 95 1 79 77 95 1 79 41 79 77 79 5 79 21 27 25 31 21 79 21 63 61 99 57 27 25 27 1 27 89 99 81 99 41 47 61 83 97 31 37 27 93 63 77 99 21 11 45 27 9 63 89 99 53 11 25 79 97 47 53 79 89 47 89 99 73 31 33 99 1 79 73 47 97 99 89 79 89 91 85 27 89 47 41 87 53 51 37 31 53 83 89 99 93 83 53 83 73 11 89 99 53 83 89 99 89 99 53 71 73 79 37 87 89 99 53 67 53 35 53 31 89 87 53 31 89 27 53 99 53 67 53 31 53 67 37 99 53 83 37 15 37 67 93 31 53 31 37 15 37 91 57 71 89 15 37 31 37 99 89 71 89 19 81 67 45 99 97 67 53 87 73 83 77 87 53 87 89 15 69 31 73 80 66 68 86 24 66 76 66 84 66 92 70 80 94 8 66 84 66 84 66 68 66 80 86 96 66 72 66 68 66 72 66 92 66 64 66 76 14 92 66 20 66 88 86 16 54 84 66 80 66 44 66 80 66 60 66 60 14 92 50 84 50 92 50 48 86 100 66 76 66 92 94 80 22 76 86 24 14 92 14 96 14 92 50 84 66 76 34 40 34 24 78 24 70 40 86 92 90 96 50 76 66 16 90 76 86 92 50 56 34 92 18 92 86 92 70 92 90 24 70 92 50 92 38 92 50 92 50 92 22 84 18 40 98 92 94 92 90 80 14 92 86 92 54 76 70 96 62 92 50 40 54 60 86 76 70 76 46 40 6 40 38 96 54 96 54 40 70 24 22 96 82 92 38 76 38 60 58 76 78 24 38 24 86 40 86 40 94 24 66 24 94 40 34 24 46 76 66 24 94 20 46 100 82 40 34 40 58 40 86 64 6 76 50 96 38 44 54 80 94 28 74 92 10 96 50 12 46 44 10 40 94 60 86 76 70 24 54 96 26 40 74 76 94 64 66 16 94 96 78 8 90 96 6 92 34 44 82 64 70 44 22 68 70 28 10 48 82 100 42 88 78 40 18 36 74 64 77 27 1 99 81 79 53 79 57 95 1 67 57 67 21 83 1 95 1 95 41 95 1 95 61 99 1 95 1 95 1 99 21 99 77 95 1 95 25 79 5 95 1 27 1 95 21 95 21 95 21 95 93 95 61 95 21 79 41 95 21 95 81 95 61 79 93 79 21 95 89 95 25 79 21 95 45 79 93 79 41 79 73 95 9 7 21 95 81 43 45 79 21 63 21 79 93 79 89 79 77 63 65 63 5 79 61 27 97 79 5 79 73 79 93 99 53 79 13 95 97 79 97 63 57 27 93 27 73 11 1 11 45 11 65 55 93 11 73 67 89 11 61 83 97 11 77 83 41 27 89 99 17 11 89 11 93 79 53 11 61 83 97 99 45 79 21 95 93 67 1 27 89 47 65 99 49 67 53 95 89 15 73 11 89 31 89 95 1 83 37 87 89 79 13 99 89 11 53 11 89 71 9 91 93 87 89 91 53 71 89 51 53 99 53 43 41 63 53 99 89 31 89 83 33 95 53 31 37 67 25 47 53 51 53 91 37 27 37 43 85 47 37 19 53 35 53 67 61 83 37 83 37 67 37 87 45 67 53 15 37 31 73 39 53 67 73 71 73 87 73 87 37 31 89 87 37 68 98 48 86 12 66 48 66 92 66 92 66 76 50 8 70 88 86 80 66 84 66 12 38 100 66 96 66 52 42 84 86 48 66 96 66 60 66 12 66 68 66 12 66 92 66 40 66 84 66 84 66 44 70 80 50 84 14 48 50 64 70 68 50 92 86 40 70 100 78 76 50 92 50 84 66 12 86 96 70 48 14 64 50 92 86 92 18 92 66 92 74 24 82 44 34 84 50 32 78 96 98 92 14 44 66 100 34 92 74 92 10 76 34 92 74 92 70 92 6 92 54 92 18 92 54 92 46 92 70 12 74 92 70 92 98 24 90 40 2 92 38 92 34 84 74 76 30 92 74 92 34 44 34 92 38 40 50 80 98 24 94 76 22 76 18 40 94 60 18 96 54 40 70 64 54 24 74 40 26 40 54 76 50 60 34 8 78 8 86 40 70 24 38 96 70 28 70 80 26 24 54 76 58 24 98 24 66 92 90 76 50 8 98 76 14 76 38 44 98 60 50 64 82 60 98 92 22 80 82 96 70 60 50 76 46 8 26 88 74 64 82 28 98 88 98 40 26 44 70 60 62 96 38 60 86 44 38 64 62 40 98 44 58 80 22 88 74 80 58 8 18 64 82 28 82 24 93 95 1 95 57 95 1 99 21 95 41 95 97 99 57 47 21 83 89 95 1 79 89 95 1 95 61 71 1 63 1 95 93 95 1 3 93 95 1 95 81 95 21 95 21 79 57 95 21 95 93 95 1 95 21 95 21 79 1 79 21 79 97 63 77 79 97 63 21 99 77 95 21 79 21 79 77 79 57 11 21 79 57 79 77 27 5 79 5 79 57 79 93 79 25 79 77 59 45 79 21 63 89 79 5 63 93 79 61 47 41 27 93 79 77 95 93 63 65 63 53 27 77 79 57 27 97 31 33 31 89 63 41 79 1 95 53 27 37 99 57 11 89 51 53 7 37 79 89 87 21 11 93 11 41 51 89 47 25 11 61 11 61 99 1 31 89 83 53 63 61 83 41 83 73 51 5 83 93 95 89 63 73 63 89 31 21 79 53 51 89 55 53 79 37 11 89 67 85 87 89 15 53 91 53 19 53 11 53 47 53 87 53 11 89 67 89 19 33 99 53 63 53 31 69 23 85 99 73 11 77 95 37 23 53 83 89 71 73 99 73 51 89 47 73 31 37 27 37 91 37 91 37 39 37 79 53 67 37 47 37 67 89 99 37 99 81 55 33 15 73 67 37 83 37 55 81 92 50 92 50 48 50 44 86 80 66 88 66 68 50 28 86 48 66 84 66 84 18 68 66 76 66 88 66 32 66 84 66 12 66 76 66 68 66 92 66 84 66 52 86 52 66 76 18 68 66 84 66 32 66 76 66 76 50 68 50 12 50 68 50 32 22 76 66 92 14 52 14 48 66 4 66 92 14 80 14 92 50 68 14 96 66 72 66 92 62 48 14 92 50 88 66 96 50 92 86 40 34 80 74 92 86 92 70 92 90 96 86 76 86 76 50 92 50 92 70 92 98 92 70 92 74 92 34 92 54 92 54 92 86 92 70 92 82 92 38 40 62 40 74 40 54 88 70 48 94 40 54 76 58 76 34 40 10 76 78 40 38 76 22 40 70 40 78 76 58 40 34 24 78 76 98 60 74 96 22 24 70 96 22 76 94 24 98 40 50 92 50 24 94 84 82 28 98 44 58 24 74 60 78 24 50 76 38 24 90 60 98 40 22 80 66 24 50 96 98 24 54 44 98 100 98 100 6 24 94 44 54 68 50 44 42 24 26 80 70 76 50 44 98 60 26 80 2 8 74 28 46 48 18 64 34 28 62 40 14 72 38 24 58 80 70 44 10 84 62 96 94 40 62 8 94 76 21 79 21 99 21 95 93 95 21 99 85 79 1 95 1 95 97 95 1 95 21 67 69 95 41 79 1 95 77 27 5 95 21 95 97 95 57 95 93 95 1 95 65 95 1 95 77 95 21 95 57 95 81 95 57 95 97 95 93 83 77 95 5 79 57 95 41 95 81 79 45 99 61 99 21 79 21 79 21 79 5 79 97 79 21 79 41 63 45 79 65 79 57 79 1 79 81 27 41 79 21 63 45 63 41 99 21 99 25 63 85 99 93 79 89 11 77 63 89 63 45 63 5 47 25 31 73 27 73 99 89 91 29 99 41 47 5 47 5 11 57 99 77 11 97 11 77 11 53 99 37 63 77 63 89 87 89 67 89 11 9 83 25 15 73 63 77 99 53 47 89 11 89 79 81 27 89 51 65 75 97 19 41 15 53 79 85 15 53 99 73 11 89 15 73 67 53 31 89 83 53 99 89 67 89 71 53 47 49 99 53 15 89 15 89 15 73 23 53 87 73 31 73 55 73 71 37 47 33 51 53 19 41 99 53 83 37 51 53 99 53 19 89 27 89 31 37 47 61 91 37 91 89 55 41 27 37 47 89 87 89 47 89 47 85 19 97 55 37 47 89 99 69 55 89 83 81 96 66 96 14 84 66 68 86 76 70 60 54 48 66 92 66 76 50 48 14 76 98 68 66 64 66 76 66 92 54 32 66 72 66 12 66 68 66 72 66 64 66 80 66 80 66 32 86 12 50 92 66 92 50 36 86 92 50 40 86 92 66 92 66 68 54 12 50 92 14 92 50 96 14 100 94 68 50 48 66 76 86 8 74 92 14 100 34 92 50 92 86 76 94 92 50 88 90 92 34 92 66 48 18 92 26 92 90 92 34 92 34 92 50 80 54 92 62 92 50 92 70 92 94 92 14 92 50 92 54 92 70 92 66 92 90 76 66 76 54 60 86 92 54 60 86 40 94 76 74 92 2 40 82 44 22 40 74 56 66 24 18 76 86 28 98 76 98 40 90 76 86 76 58 80 2 96 62 76 70 24 82 24 38 40 98 60 86 80 78 96 2 24 42 24 38 44 94 40 66 80 66 76 98 24 98 24 46 80 94 24 74 60 62 24 18 40 86 92 98 100 74 80 86 76 6 44 6 8 10 96 66 80 98 100 66 64 54 64 70 28 82 64 58 44 86 28 98 8 26 92 98 64 90 76 90 64 50 44 42 76 6 44 70 76 82 88 26 8 86 92 90 88 50 100 98 8 77 59 21 51 41 99 61 83 93 83 89 79 93 99 97 95 93 95 77 99 1 79 1 95 1 95 1 83 21 79 57 63 73 63 21 95 93 83 21 95 65 99 1 27 61 95 77 95 41 95 21 95 93 95 57 99 77 95 21 79 21 95 41 79 93 79 93 79 41 79 97 31 21 79 13 95 5 79 89 79 1 27 93 79 41 79 77 79 13 83 1 79 25 79 57 79 25 63 21 79 21 79 57 63 49 63 5 31 85 63 57 83 77 99 21 71 93 51 77 63 61 63 89 27 25 99 25 99 61 27 97 63 77 99 45 63 61 47 37 11 97 63 77 27 93 99 89 11 21 11 77 63 53 11 89 63 89 11 73 27 1 47 97 63 89 79 53 47 89 83 53 63 73 47 53 15 89 15 89 27 89 79 89 91 53 87 77 51 89 35 37 83 89 71 89 47 89 39 89 83 89 79 89 71 89 11 37 19 97 83 53 67 89 71 37 47 89 99 57 99 53 79 53 99 37 71 89 47 89 67 53 83 53 19 37 47 89 27 57 87 37 91 89 67 37 11 53 67 37 75 89 55 73 35 89 11 89 99 53 59 37 47 37 71 41 83 89 63 73 91 73 83 73 83 73 91 73 96 66 68 50 84 66 32 66 92 66 84 66 92 86 48 70 80 50 68 66 84 50 24 66 88 66 20 50 92 70 48 66 76 66 100 66 88 66 84 66 48 66 92 58 72 50 32 66 52 66 68 50 80 66 4 66 92 86 64 66 48 50 40 18 12 66 12 50 84 90 72 66 92 66 36 22 48 70 76 58 84 50 92 66 92 70 12 14 96 14 88 14 44 50 92 50 8 54 76 50 76 66 68 54 32 86 96 34 92 38 24 38 92 70 92 90 100 94 60 66 92 50 92 86 92 50 92 38 92 90 92 82 76 26 92 54 92 90 76 74 76 70 92 70 44 66 92 70 76 42 76 86 88 94 96 6 76 50 40 2 76 18 92 34 40 34 96 74 40 82 76 30 40 94 92 38 96 38 76 82 76 54 76 62 76 30 24 94 60 10 24 18 60 66 76 54 24 78 24 86 40 70 60 14 60 18 44 98 60 22 24 86 8 82 96 74 44 82 8 34 64 14 96 94 40 62 24 58 76 30 64 74 8 62 8 22 44 46 24 90 96 34 24 94 92 54 100 98 44 18 80 78 76 78 100 82 76 74 80 58 80 18 92 58 8 94 40 54 96 98 96 70 8 82 80 78 60 57 63 21 95 29 99 21 95 57 99 57 95 57 95 1 83 57 79 1 95 57 95 57 95 21 95 93 47 93 95 57 95 1 95 57 95 21 95 93 95 57 83 5 95 1 83 97 99 97 95 21 95 93 71 1 99 93 63 21 95 21 79 41 95 21 95 93 95 81 79 21 99 73 95 5 79 21 51 85 95 5 95 73 79 5 79 1 63 5 79 89 79 97 31 41 79 57 79 61 79 53 63 57 79 89 79 9 83 57 79 61 63 49 83 97 47 25 99 97 95 81 27 81 79 93 63 29 47 5 63 93 11 73 63 73 27 29 51 1 99 73 83 1 11 81 47 77 79 25 83 57 63 57 99 89 47 81 47 93 71 53 87 53 99 57 11 89 11 53 87 69 75 9 95 25 11 53 35 53 31 89 99 17 11 21 31 49 47 25 27 89 35 93 27 49 67 89 67 53 47 89 87 89 67 89 7 73 63 89 47 61 51 37 15 37 95 73 87 89 71 25 91 53 99 89 31 89 35 37 67 37 87 89 31 73 51 37 71 53 67 37 83 73 15 37 91 53 67 73 87 37 31 53 99 37 35 37 91 89 19 37 27 37 7 37 35 89 79 73 63 37 63 37 87 13 67 93 88 66 12 66 92 82 88 70 84 94 100 66 92 66 40 54 88 70 8 70 60 86 96 14 96 74 84 14 40 66 76 66 96 66 72 66 84 50 92 66 84 90 12 50 92 82 4 50 72 50 100 86 92 86 96 66 92 90 92 86 28 70 68 86 92 18 56 34 24 50 68 86 40 34 92 78 76 14 96 50 76 34 92 66 40 94 96 34 76 86 32 22 84 94 92 34 76 14 100 50 92 86 76 42 92 86 92 14 52 78 76 66 92 34 92 2 80 14 92 74 92 78 92 62 40 50 92 54 76 58 92 46 92 34 92 54 92 54 92 94 92 18 92 90 96 98 92 66 76 66 92 18 76 74 76 6 60 66 76 90 76 18 40 38 76 90 60 78 96 74 76 62 80 90 76 50 40 66 76 90 8 90 24 50 96 22 100 10 60 46 76 14 92 46 8 6 24 98 40 54 24 6 24 54 92 74 64 50 76 70 24 70 92 86 8 74 60 6 24 94 92 98 24 98 8 58 8 90 76 70 60 78 76 62 40 90 44 42 60 38 28 94 44 2 76 82 96 94 44 46 60 90 80 90 64 74 72 62 80 34 80 98 76 98 8 90 24 70 92 86 92 30 76 98 80 46 64 1 95 45 15 93 43 77 95 21 95 1 27 21 95 93 39 93 63 21 23 21 99 25 63 1 95 1 47 21 27 1 83 17 79 21 35 21 99 93 95 57 95 21 95 57 63 25 95 21 99 93 79 1 79 77 79 61 79 41 95 29 95 77 99 45 47 21 79 69 95 93 11 21 87 21 95 21 95 57 79 5 99 57 63 93 79 61 95 61 79 21 47 77 63 65 79 65 79 97 63 97 79 5 63 97 79 5 47 77 63 25 99 9 79 73 67 73 63 73 99 89 47 57 27 97 95 89 63 5 79 57 11 57 11 77 99 93 63 5 83 77 99 85 11 65 11 81 67 61 11 53 51 49 95 53 11 41 71 41 47 57 99 89 95 73 67 97 83 77 27 41 83 89 83 5 15 73 47 93 47 65 83 73 63 89 47 89 11 73 87 89 31 89 63 73 51 89 87 89 27 89 67 89 67 89 83 89 31 37 55 53 23 89 67 53 87 37 15 89 63 77 99 89 87 53 15 53 59 53 35 17 67 37 95 73 71 37 95 53 71 37 71 89 63 37 79 37 71 73 67 37 87 37 87 37 67 37 7 73 11 89 83 85 87 73 63 37 71 37 43 89 63 89 67 89 99 77 48 82 84 38 48 66 24 90 72 66 96 50 28 66 92 66 88 50 92 66 48 66 92 86 80 66 64 54 84 66 84 86 92 50 84 66 24 66 16 86 40 66 16 66 52 86 96 66 68 66 100 50 12 66 96 34 32 86 92 66 44 50 96 66 76 50 48 70 52 70 88 50 52 34 28 86 100 50 32 62 100 50 92 34 72 50 44 58 92 82 40 50 100 90 84 70 92 62 96 86 92 74 92 2 92 78 92 70 92 58 92 58 92 66 48 86 92 90 100 42 92 38 92 70 92 66 92 66 92 98 64 86 92 14 40 6 76 54 80 86 92 14 92 70 76 66 60 74 76 74 76 94 76 78 96 58 80 22 92 42 76 42 92 18 60 34 76 46 60 78 60 86 76 66 92 50 24 34 24 94 96 42 40 82 96 54 24 98 24 86 28 94 76 10 60 10 60 78 24 58 76 14 8 70 76 50 8 10 24 66 28 70 24 70 76 82 24 22 24 22 96 90 8 82 76 62 8 54 8 98 8 58 8 70 64 74 24 62 96 10 28 38 92 54 64 26 24 98 64 34 92 62 68 90 40 38 96 6 44 98 28 58 96 34 76 18 80 6 80 98 80 98 28 86 80 70 24 45 99 93 59 93 63 1 95 5 95 85 79 77 95 41 95 81 79 77 95 1 95 69 95 21 95 93 95 93 43 5 99 21 95 93 95 93 95 5 47 21 99 21 79 21 95 77 95 21 79 77 79 21 95 21 43 33 83 57 79 21 95 21 79 45 23 77 95 33 95 29 79 21 79 5 95 5 79 57 63 5 79 65 63 49 79 93 79 97 79 5 11 1 79 93 79 5 63 1 99 57 95 57 63 45 79 57 79 97 83 45 99 61 63 81 99 57 79 25 51 65 63 57 95 97 63 33 99 21 27 89 83 81 63 93 47 93 47 77 47 93 83 25 47 65 99 97 11 89 63 93 67 81 11 81 47 85 11 53 11 5 11 41 99 29 63 93 27 5 63 89 47 53 63 53 47 53 11 89 11 89 63 73 31 61 51 89 31 89 11 89 99 49 31 37 67 89 67 89 91 89 15 53 83 89 67 53 83 89 31 89 87 73 83 89 51 53 35 89 31 73 99 45 63 73 19 89 35 37 27 57 31 53 15 73 43 73 83 9 71 97 79 37 79 73 67 73 31 73 71 37 51 89 35 89 79 73 47 73 51 89 35 73 67 73 87 77 79 61 47 73 71 77 71 53 11 73 76 86 24 86 52 50 68 50 68 66 80 82 28 90 84 66 76 66 88 66 68 74 96 66 68 98 92 66 84 86 76 66 60 50 96 66 48 50 84 66 76 66 68 38 92 50 92 66 92 86 96 86 88 50 92 58 72 62 48 14 100 14 92 14 60 86 60 50 92 50 48 50 92 66 8 50 92 50 84 50 68 54 48 86 80 86 76 50 52 70 92 94 92 70 92 14 92 38 92 34 76 86 92 34 76 50 92 50 100 66 92 34 92 18 76 18 32 70 96 38 92 70 76 38 92 18 92 18 92 38 92 94 76 74 92 26 96 54 76 50 76 58 76 82 76 98 76 50 92 74 92 90 60 78 76 38 24 86 76 78 96 94 80 70 92 86 76 2 96 86 60 2 80 94 76 66 76 54 60 42 80 10 60 10 76 74 76 58 20 38 24 94 24 94 24 98 24 22 60 82 96 2 60 82 24 86 84 58 24 74 8 74 80 46 92 10 76 90 52 98 28 94 64 2 100 22 80 6 64 46 8 82 88 62 44 78 76 26 24 82 8 78 28 78 80 10 96 90 64 90 60 38 72 18 80 74 100 26 44 94 24 82 24 58 76 66 100 70 28 78 24 62 88 70 64 86 64 21 95 93 99 77 75 57 95 97 95 1 99 53 95 21 19 77 95 21 95 1 95 57 79 93 27 41 47 21 95 1 23 1 95 77 95 21 51 9 95 77 95 21 55 77 95 93 63 1 95 21 47 21 95 21 99 57 79 61 95 41 99 41 95 61 63 61 99 1 99 89 95 21 99 57 79 97 79 93 79 21 79 77 79 21 63 5 27 89 79 97 95 89 95 21 31 97 63 93 83 77 99 21 99 9 99 93 79 21 63 77 63 93 63 77 63 61 63 9 83 69 63 5 63 17 95 53 91 77 47 93 47 57 47 77 55 89 83 9 11 97 47 93 83 57 63 89 11 37 99 89 47 61 11 57 27 25 31 61 11 53 87 77 83 89 87 29 67 25 99 93 47 53 67 45 95 89 11 89 79 89 99 89 63 89 99 89 99 89 31 53 99 89 11 89 83 89 51 53 63 53 67 89 99 81 31 37 51 89 67 89 71 89 71 89 55 53 83 97 31 89 31 73 63 73 95 53 71 73 99 77 95 53 95 73 47 37 11 89 51 37 27 89 51 37 15 73 79 37 71 37 87 89 27 73 55 89 91 85 87 73 79 37 35 73 67 81 67 37 55 89 11 85 35 89 91 89 48 86 100 86 16 14 88 58 60 14 48 66 52 66 16 66 84 66 72 50 24 66 84 66 12 66 48 86 60 66 96 66 44 66 88 66 80 14 92 66 44 66 32 66 92 50 32 50 28 66 80 66 100 86 40 50 92 66 88 14 48 66 76 50 92 50 88 50 44 86 60 50 92 70 76 50 12 50 76 22 84 50 72 86 52 34 76 70 92 14 76 62 60 34 92 22 36 34 96 38 92 34 92 70 92 50 76 34 76 34 92 34 80 70 92 14 92 90 92 74 76 86 92 18 60 70 92 70 80 34 92 58 92 54 92 22 92 86 76 58 76 66 92 82 92 42 92 94 92 34 64 86 60 34 92 98 40 22 76 34 76 38 76 6 96 90 76 50 24 94 48 38 60 58 76 10 76 30 88 98 96 2 60 2 60 94 76 66 76 38 80 18 24 86 96 86 24 78 60 22 44 74 60 90 24 94 40 94 60 74 28 14 80 54 60 66 96 82 84 2 96 58 8 98 8 98 8 74 80 10 8 62 8 42 100 66 96 38 8 86 8 62 100 98 8 50 64 54 60 82 44 90 24 6 76 82 100 74 28 26 8 82 64 98 28 94 8 18 16 26 28 74 64 42 60 46 64 93 63 21 79 93 95 5 63 21 99 61 99 1 95 57 47 57 55 77 79 93 83 1 79 93 79 93 95 41 95 21 95 57 95 21 79 21 79 81 95 77 95 97 95 21 63 21 95 21 79 93 79 21 95 21 63 21 79 5 95 21 71 21 95 77 79 57 79 5 95 5 67 53 79 21 95 73 95 1 79 49 79 73 79 5 99 97 3 77 79 89 99 93 99 41 79 65 63 61 99 5 99 57 63 21 51 61 63 29 95 21 63 5 63 93 63 53 63 77 63 41 95 73 63 97 63 77 99 41 79 33 71 65 63 89 95 89 99 97 31 93 99 53 47 53 11 41 63 93 63 89 51 77 27 45 31 97 83 53 67 89 11 77 11 89 51 57 31 89 11 45 67 93 67 89 99 89 15 73 31 53 47 21 15 89 99 73 83 37 83 53 11 89 47 89 51 89 15 89 15 89 99 53 67 89 83 89 71 89 99 77 63 89 87 73 79 89 99 89 31 73 51 73 79 89 67 89 15 73 95 89 99 53 55 73 35 89 15 37 67 89 91 89 79 37 47 37 79 37 79 53 87 37 71 57 83 37 51 37 35 73 11 53 11 89 51 73 91 73 79 69 43 37 79 53 55 61 84 66 88 86 88 86 12 54 92 50 72 66 92 66 92 86 44 66 32 86 48 54 44 14 44 86 96 14 80 66 72 66 64 66 56 86 76 66 32 94 32 54 72 66 12 66 64 66 92 70 60 86 84 86 72 46 80 86 68 66 52 66 92 66 72 50 60 86 92 50 80 70 84 50 48 50 96 50 76 86 96 86 76 34 96 82 88 86 92 34 92 34 76 50 44 86 92 54 20 66 92 50 72 42 92 90 84 34 92 34 92 34 92 14 60 86 40 50 96 54 92 98 92 70 92 66 92 98 92 90 92 18 92 90 92 86 92 26 92 18 76 90 84 54 40 54 76 90 76 94 60 78 76 70 76 90 76 22 76 94 76 38 40 78 92 70 76 50 40 94 76 70 40 74 76 46 44 46 76 54 60 74 60 66 60 86 24 38 40 90 76 18 60 46 64 82 60 94 24 90 24 50 24 98 80 42 96 62 96 6 80 46 96 82 96 66 80 82 76 70 8 90 8 66 60 90 60 38 96 78 68 38 60 98 44 26 8 70 60 26 8 70 96 54 24 98 24 82 96 70 64 6 20 82 8 42 28 46 72 70 36 90 80 2 96 26 80 46 80 70 80 74 100 42 60 46 28 93 83 81 95 1 95 21 99 93 95 81 79 57 87 21 95 97 83 57 63 57 43 77 95 41 63 57 95 1 95 57 95 81 95 77 51 21 99 93 95 21 67 21 83 21 95 21 79 93 27 93 79 21 99 21 95 5 63 93 63 21 63 21 39 21 95 21 95 77 47 33 95 57 63 21 79 45 95 89 79 5 95 65 79 77 79 5 79 93 79 77 95 21 99 89 99 25 99 41 63 21 79 45 63 89 63 77 63 5 63 77 99 57 95 93 67 5 63 45 95 57 63 61 83 57 99 89 63 45 63 9 47 77 79 49 47 41 87 73 31 97 47 41 79 85 63 21 67 53 47 77 63 41 11 89 67 45 83 93 79 73 31 81 83 73 11 89 83 73 67 73 47 89 79 89 99 89 31 45 83 49 51 89 11 89 31 89 31 89 51 45 63 69 67 89 87 89 51 89 51 53 31 89 31 89 15 89 71 89 99 89 31 73 35 89 87 37 99 89 11 13 67 37 35 89 67 53 67 53 67 73 51 73 83 37 95 73 11 37 35 37 79 73 35 85 47 89 31 37 71 65 59 37 87 73 99 73 87 53 67 37 75 37 91 73 99 73 51 29 63 73 83 73 99 89 59 53 84 74 96 66 12 66 88 86 12 66 52 66 60 98 32 86 92 78 52 86 56 66 52 14 40 86 48 86 44 66 8 66 12 86 60 86 88 66 64 50 48 66 100 86 100 50 32 66 84 66 84 66 96 86 60 34 76 94 72 66 76 86 84 66 60 34 88 50 20 86 76 86 8 50 12 18 92 50 76 86 92 86 92 18 96 50 40 50 92 70 88 70 92 50 92 50 32 90 60 86 60 46 92 66 92 90 92 50 92 70 84 34 68 78 28 90 92 86 92 14 92 18 92 34 92 34 44 78 92 70 92 98 92 18 76 78 92 86 92 18 76 42 76 46 40 70 76 74 76 22 96 2 76 90 76 54 60 38 28 78 76 62 76 90 96 42 76 50 92 90 76 38 24 70 76 46 24 94 24 94 44 10 64 86 60 82 76 86 40 26 24 90 60 90 80 54 40 98 28 42 44 86 60 22 64 70 24 38 8 62 24 98 24 90 64 98 44 14 96 82 28 18 40 50 80 82 8 46 96 94 44 82 92 70 96 74 76 70 44 26 96 74 96 82 44 58 8 98 56 54 44 62 8 34 96 82 80 46 8 2 64 78 100 70 60 58 60 30 96 94 80 94 92 90 60 62 92 41 71 41 95 77 95 57 39 65 79 93 79 93 63 93 95 77 95 93 99 93 79 41 39 1 79 93 95 93 79 57 95 93 99 97 95 21 95 41 95 57 63 21 95 21 79 21 47 21 95 1 95 21 95 93 95 5 95 93 67 21 99 45 95 21 79 21 47 89 99 93 51 93 99 45 79 57 79 65 79 21 99 1 79 97 55 77 95 81 79 57 83 97 99 57 63 5 79 41 19 25 63 69 99 57 63 41 99 81 63 29 47 97 47 25 63 97 99 93 47 93 99 93 63 77 63 41 83 93 47 13 99 9 27 25 47 69 99 89 11 41 31 73 83 73 31 33 63 29 47 89 47 53 31 37 79 41 95 93 63 97 47 69 95 57 31 89 31 81 71 9 99 65 27 97 11 89 67 89 79 89 99 89 91 89 51 89 31 89 67 89 31 89 67 53 31 37 83 89 91 53 95 89 31 89 35 89 15 89 51 89 87 89 35 89 31 89 15 89 87 89 47 37 67 73 43 97 67 89 67 1 71 37 91 93 67 73 55 37 99 73 87 89 63 37 67 37 31 37 55 89 91 73 47 73 95 73 99 81 95 37 63 73 51 37 39 37 99 97 15 37 23 73 95 81 63 53 96 78 44 66 12 26 84 66 80 62 48 66 76 66 96 66 48 66 84 66 88 66 92 90 100 86 100 66 80 66 72 86 96 50 48 82 100 66 96 66 84 66 84 86 48 66 80 58 12 86 32 66 92 86 92 50 48 86 44 50 84 86 64 50 92 86 24 50 24 66 76 66 96 50 96 50 84 34 92 50 88 34 32 74 88 86 96 74 76 50 92 86 60 34 84 34 92 34 96 86 92 50 92 70 92 50 92 90 92 50 80 50 72 70 80 54 76 42 92 34 92 78 92 70 92 70 92 98 84 14 28 38 92 50 92 18 40 2 92 2 76 18 40 86 76 54 76 34 76 38 76 70 92 86 76 94 60 94 96 58 96 42 76 62 76 70 60 2 76 50 76 22 28 86 76 70 76 22 96 54 60 58 100 38 96 82 60 98 76 82 60 50 40 90 60 26 100 98 60 78 60 58 60 98 44 70 100 38 80 98 8 2 60 54 44 86 44 34 96 26 80 78 96 38 8 2 96 42 100 94 8 94 96 6 8 6 76 6 96 38 28 90 60 98 96 86 64 22 72 94 8 46 80 98 24 54 96 46 8 38 68 98 60 58 28 38 60 90 80 54 60 74 68 70 76 82 92 93 99 93 87 93 7 1 79 97 39 77 79 21 39 57 39 41 79 77 95 57 11 5 47 57 27 57 35 57 15 93 99 41 95 1 79 21 99 21 83 21 99 21 23 97 99 21 99 21 79 45 63 21 79 61 95 57 79 93 99 77 99 21 99 93 79 93 79 5 75 45 79 1 63 25 63 1 79 97 63 57 79 93 79 5 79 13 95 37 63 93 63 21 99 77 63 89 79 25 95 93 63 61 79 5 99 25 99 97 63 25 99 41 83 77 63 57 63 97 83 45 63 57 63 77 63 25 99 33 63 85 99 89 79 89 47 69 11 89 47 53 63 93 11 57 83 77 11 25 99 89 99 21 63 61 47 89 63 61 95 89 31 89 47 41 51 61 67 41 67 73 83 53 35 89 31 89 67 89 67 89 11 89 79 65 67 73 99 81 67 73 47 89 91 61 79 85 35 89 67 89 51 89 31 41 83 89 31 89 87 89 31 53 31 81 83 89 99 33 51 73 99 73 51 73 63 89 99 89 35 89 55 73 79 37 51 37 67 37 47 73 79 73 83 89 95 37 51 73 3 37 27 73 31 89 35 73 35 73 95 77 31 77 35 89 71 61 83 73 67 37 67 93 47 37 19 53 12 58 72 30 12 66 84 74 68 86 24 66 96 34 76 66 96 66 84 66 60 50 72 46 68 34 96 66 84 54 80 70 76 86 48 66 56 18 72 62 88 74 64 90 48 86 16 66 96 86 32 14 84 38 96 66 48 50 68 86 84 34 12 50 92 50 80 86 36 50 100 50 76 50 48 86 100 50 92 86 100 86 92 50 92 70 76 70 100 34 96 18 92 70 80 70 64 34 64 34 92 34 96 50 92 70 96 34 76 66 76 18 36 50 44 18 92 74 96 78 28 90 96 66 64 70 92 18 92 82 36 70 36 18 76 14 92 18 80 18 76 70 92 94 76 98 76 70 76 58 76 94 76 86 96 18 76 2 64 78 60 66 40 90 60 90 88 26 96 82 76 22 40 18 60 34 88 70 96 86 96 82 60 98 24 34 92 98 60 90 8 22 40 42 60 86 44 90 76 38 60 10 8 94 24 50 60 78 60 86 24 38 24 50 92 50 76 90 96 62 8 78 8 54 8 98 40 62 44 82 8 34 60 90 76 82 68 10 76 70 80 66 100 98 80 98 8 6 28 82 8 78 100 26 92 78 40 82 100 26 44 38 80 90 100 62 84 70 8 42 100 98 8 94 24 90 100 57 99 93 19 93 79 93 99 93 95 65 79 1 79 21 79 77 11 93 95 1 95 5 99 41 95 1 95 89 79 81 95 21 95 21 15 93 95 21 95 21 95 77 95 85 95 21 39 21 99 21 79 21 99 21 43 61 95 89 95 21 31 69 79 45 79 5 79 57 51 97 79 57 79 85 83 41 31 57 63 97 99 85 99 5 99 41 27 5 79 1 79 77 99 5 79 53 87 25 63 93 83 65 99 93 79 41 99 57 63 5 83 41 99 77 83 89 63 85 99 21 63 53 11 45 31 61 95 93 63 89 63 61 99 21 47 53 67 93 79 89 99 89 47 37 63 81 83 93 99 65 63 9 11 77 95 89 67 97 27 73 83 65 99 73 67 89 63 25 63 89 31 93 31 85 31 89 83 89 87 89 99 53 11 89 67 89 63 89 27 89 83 37 51 89 23 37 83 89 67 89 83 97 79 97 71 73 63 89 7 89 83 73 15 73 95 89 83 89 35 73 27 13 95 73 83 73 11 73 55 73 83 89 87 73 87 73 79 53 35 53 55 73 75 37 71 73 51 73 15 37 55 37 35 57 47 85 87 73 19 73 63 73 51 37 19 73 87 37 87 89 67 73 63 37 95 73 36 38 80 34 28 86 32 34 84 82 96 66 92 66 76 66 32 78 56 86 12 86 52 86 40 50 28 86 84 86 84 66 88 66 12 86 64 54 44 14 48 66 12 66 92 58 96 86 32 86 80 90 96 86 92 50 92 18 80 66 80 54 32 66 60 50 96 90 76 70 68 50 24 86 100 86 44 50 76 50 96 50 88 50 92 50 52 50 60 50 92 34 92 34 92 34 92 34 92 86 28 50 68 34 92 86 28 38 40 38 96 70 96 34 92 70 92 42 92 70 12 66 60 86 92 22 92 34 92 34 88 18 92 18 96 94 92 66 92 82 64 18 76 2 76 34 92 54 80 90 76 54 76 50 76 18 76 54 76 98 40 54 76 38 76 2 76 38 96 58 76 98 96 54 76 2 60 70 76 90 96 78 76 22 24 2 60 70 60 2 8 74 76 6 24 58 96 94 80 90 24 70 96 18 96 6 96 74 40 90 24 90 44 54 60 22 8 26 64 26 8 94 8 10 8 94 28 42 8 74 8 26 60 70 44 62 44 58 96 86 28 10 96 54 96 26 24 90 80 10 64 46 52 46 44 94 80 90 100 90 36 98 28 70 96 6 8 82 64 74 8 62 88 74 96 10 8 57 95 21 95 93 83 57 95 93 95 57 95 85 95 93 79 21 99 1 95 93 63 1 79 21 95 21 79 77 35 77 95 21 95 57 51 93 83 21 95 21 83 97 95 21 95 21 79 21 79 97 99 41 95 21 95 21 79 57 95 41 63 21 79 5 95 93 47 21 47 89 79 25 99 41 79 5 63 45 95 97 99 93 99 5 63 77 99 9 99 57 79 77 87 77 95 5 99 93 99 57 79 41 99 93 99 21 63 5 79 93 63 89 95 97 67 61 99 25 51 9 83 57 67 57 63 57 47 53 47 97 47 61 47 69 47 89 11 73 79 69 47 5 99 57 27 85 47 5 47 37 99 57 51 53 47 77 27 89 47 57 47 13 63 57 31 21 31 73 31 37 83 61 71 89 11 81 83 89 63 45 55 89 47 73 31 89 31 89 51 97 67 37 75 89 67 89 91 89 47 89 55 89 67 89 51 37 95 45 31 89 91 89 51 45 83 89 35 73 11 89 83 73 67 89 55 73 27 73 31 37 91 89 87 73 43 81 27 37 31 53 7 89 95 37 91 89 31 37 31 37 83 37 47 29 95 73 91 73 87 73 67 73 43 49 99 73 95 69 19 81 71 37 99 89 99 37 84 90 84 86 48 66 48 66 48 66 80 82 60 86 96 66 12 66 96 66 48 86 44 66 84 66 84 46 100 14 12 54 36 70 32 66 100 86 60 86 92 66 12 66 12 86 88 86 96 86 84 86 68 86 80 86 84 86 92 50 76 86 92 50 80 50 12 34 32 94 56 50 32 74 100 70 96 50 40 70 40 86 96 86 40 50 52 34 76 34 96 14 92 74 40 34 96 70 40 34 44 34 44 86 76 18 56 70 64 90 92 86 92 70 76 74 92 34 76 34 92 18 92 18 44 58 60 98 92 18 92 90 76 74 76 66 96 54 76 18 76 54 92 54 76 34 96 90 76 38 60 34 40 18 92 66 60 90 76 90 76 82 76 38 96 86 40 94 76 54 76 86 84 54 76 2 60 98 76 98 76 90 96 94 64 82 92 70 100 38 80 54 24 86 96 62 96 74 76 74 92 46 92 50 8 98 44 78 8 58 80 74 8 86 92 70 24 74 8 90 8 78 92 90 8 98 92 86 64 78 8 66 76 6 96 98 60 2 60 42 60 78 76 98 44 98 64 38 64 54 96 14 60 50 100 82 92 86 64 50 80 38 60 70 64 70 28 26 96 46 8 22 60 98 44 78 64 93 63 93 95 93 79 1 79 93 95 21 87 57 99 57 99 77 95 77 99 21 95 93 75 57 99 57 95 1 99 93 95 93 79 97 47 57 95 93 83 97 99 61 79 21 79 93 87 21 99 77 47 57 95 93 99 57 79 41 47 41 95 41 99 57 95 61 79 69 95 57 99 93 3 41 79 5 79 21 95 5 63 57 79 1 79 61 79 9 63 77 63 97 95 61 99 5 95 9 99 89 99 57 99 81 99 5 99 81 63 89 99 45 63 57 63 97 63 29 99 45 99 61 99 77 63 77 63 41 99 61 63 57 47 61 63 81 27 9 47 93 31 89 79 69 99 57 63 89 99 53 99 9 47 25 83 93 99 89 15 25 63 89 83 25 83 53 83 77 47 89 87 53 15 89 31 89 79 41 51 53 47 37 11 53 11 89 47 89 11 97 15 89 87 89 83 89 83 89 63 89 91 89 47 89 51 73 83 89 63 97 67 89 31 89 67 89 51 73 67 89 79 89 83 73 15 73 67 37 67 73 67 89 91 73 83 73 67 73 55 73 55 73 71 73 87 53 55 53 99 73 91 53 67 73 95 37 71 41 83 53 35 73 67 37 55 45 67 25 83 73 55 49 99 73 91 37 48 22 48 86 48 70 16 90 12 66 84 54 96 70 76 86 84 78 32 66 48 86 16 50 92 74 48 78 48 66 96 66 92 50 40 98 68 86 84 86 96 50 32 66 52 70 12 50 76 86 28 86 12 86 52 66 36 86 96 34 92 70 88 66 84 86 48 54 44 86 92 50 68 70 92 86 76 10 92 54 84 50 96 70 60 50 92 34 60 34 92 34 44 34 92 34 68 86 36 34 76 34 72 86 88 34 92 54 32 46 92 34 68 54 96 54 28 54 80 94 92 54 92 50 76 54 16 6 96 18 92 90 40 18 76 70 92 38 72 74 100 58 60 94 60 74 44 54 76 38 80 86 60 98 76 2 76 94 80 90 96 42 76 38 8 38 60 74 76 90 96 50 96 98 76 74 60 54 60 34 100 46 60 78 60 42 92 6 64 54 60 42 40 58 40 22 44 6 92 54 92 46 44 14 96 58 44 74 8 98 44 98 60 98 80 94 100 18 44 94 80 54 8 66 48 54 44 74 8 90 44 50 80 62 80 34 96 26 24 74 44 14 8 74 60 78 100 18 28 26 60 98 28 54 92 54 80 58 24 46 64 98 40 98 60 78 64 82 100 66 8 82 64 82 28 78 28 93 95 65 95 93 99 57 95 93 79 1 95 57 79 57 19 57 79 57 99 21 63 89 95 57 47 25 83 41 95 93 67 57 79 21 95 97 83 21 63 21 99 29 95 21 95 21 79 21 95 21 99 61 95 21 63 25 91 57 95 21 71 57 95 97 79 41 83 89 79 21 95 5 99 53 79 57 79 77 39 1 71 77 79 81 99 25 99 77 99 77 79 5 47 93 99 45 99 57 23 97 91 21 99 61 63 77 99 13 99 69 99 57 99 97 99 57 99 25 83 85 91 41 63 25 83 77 79 61 47 77 47 97 99 97 47 9 47 41 47 65 47 25 47 61 47 65 63 81 47 89 67 89 47 89 31 65 99 5 87 21 31 89 31 57 55 37 79 77 67 29 99 73 63 89 63 65 31 53 63 49 87 89 75 61 47 89 31 65 47 53 67 89 35 41 67 89 67 89 87 89 67 73 71 89 67 89 15 53 35 89 43 89 95 89 63 53 83 89 83 73 71 89 47 89 31 37 87 37 87 37 35 89 15 73 87 73 83 73 67 73 71 73 51 73 87 73 27 73 27 37 67 77 71 73 99 37 35 73 67 89 35 37 7 73 87 37 99 37 63 89 31 73 35 73 91 77 48 86 88 66 68 86 40 86 36 86 64 50 76 66 48 14 100 86 48 38 68 66 96 70 68 66 84 86 84 46 92 50 84 54 36 98 32 74 92 86 48 94 48 50 48 86 8 86 84 86 76 50 52 86 12 86 8 86 48 86 92 34 12 50 92 86 96 14 76 66 68 86 92 86 92 94 76 86 44 86 36 34 76 34 92 70 28 70 92 90 92 34 92 98 76 54 96 34 92 34 96 62 68 70 80 14 92 34 40 34 92 86 96 34 76 86 24 54 92 18 44 54 48 54 92 34 56 54 76 86 76 74 76 54 72 70 76 54 84 70 96 98 76 74 76 54 88 18 96 34 76 78 92 90 76 62 60 58 76 58 60 34 40 54 60 54 80 70 96 18 44 90 60 18 96 78 24 74 44 54 60 38 60 94 60 50 60 38 40 58 60 86 60 2 80 2 80 58 60 42 44 50 44 34 60 38 96 58 28 78 96 42 100 54 76 38 44 2 8 6 44 66 44 82 96 62 28 58 44 74 76 86 96 78 24 54 100 82 44 94 80 14 24 18 64 86 44 78 64 66 64 10 40 94 28 42 28 94 100 82 96 78 76 90 64 50 8 94 76 74 64 94 96 42 64 98 40 93 83 93 95 93 7 45 99 93 99 93 95 45 95 93 79 21 95 57 99 93 87 41 79 97 75 25 47 57 79 21 95 57 99 5 59 21 87 21 79 57 79 93 95 21 11 21 27 93 79 57 79 21 27 93 99 5 95 57 99 41 99 21 63 21 75 21 63 21 63 93 91 21 99 5 79 5 99 93 99 97 63 89 79 25 99 93 79 41 99 5 99 5 99 5 99 77 99 61 99 41 79 41 79 65 99 65 99 5 99 77 99 93 27 57 99 97 83 81 79 93 63 61 47 45 99 93 55 93 99 65 83 65 47 89 99 97 99 65 83 57 47 61 11 49 99 97 47 45 91 73 83 5 99 21 51 53 59 45 47 53 67 89 99 93 95 45 47 81 31 37 31 57 31 89 31 61 67 89 63 13 51 89 15 89 47 49 31 53 27 89 35 73 99 89 51 13 27 89 99 89 83 89 15 77 31 89 71 89 11 89 87 53 15 53 67 85 67 73 99 89 15 89 31 73 23 89 19 73 15 73 87 73 55 45 15 73 91 73 87 29 3 73 51 73 19 37 67 37 67 73 27 77 19 65 79 37 71 73 19 37 87 81 71 37 67 77 51 89 51 37 67 81 51 77 55 9 72 82 36 86 32 90 92 94 32 50 84 86 60 70 92 66 84 66 12 50 84 66 52 86 84 90 76 86 8 78 16 86 88 86 52 50 48 70 88 70 76 86 76 46 8 86 88 86 12 86 72 86 92 86 92 86 92 86 84 86 32 86 64 86 68 86 92 86 100 86 52 2 92 86 96 86 80 70 80 34 76 50 28 86 96 50 92 70 92 70 92 90 76 34 96 18 24 86 96 70 72 54 44 86 36 86 80 54 76 94 88 70 76 18 92 70 32 18 72 70 76 70 76 66 100 54 92 18 76 18 92 58 64 94 76 50 76 90 80 74 76 2 92 14 76 90 76 18 76 54 16 34 40 62 100 38 24 18 44 54 80 90 24 42 76 86 96 26 76 90 60 62 60 78 96 78 60 90 60 38 60 26 96 2 92 42 80 58 24 6 60 34 80 66 100 50 60 26 8 18 60 18 96 42 80 82 60 26 96 90 8 58 96 94 8 62 44 74 8 10 44 22 60 78 28 38 60 50 44 90 64 38 8 58 96 6 28 54 32 98 44 26 80 78 76 98 60 62 8 54 92 94 80 62 76 94 100 62 28 94 96 42 96 94 96 90 64 98 96 42 64 22 60 42 80 78 64 77 63 93 79 21 99 57 83 45 79 41 99 1 79 77 95 77 27 57 79 57 95 93 95 77 99 1 95 57 95 57 47 57 87 77 51 41 95 21 95 57 95 57 59 57 27 21 95 61 79 57 83 5 23 77 99 57 79 41 95 61 83 1 27 93 79 57 63 57 79 45 63 5 99 5 79 41 79 97 95 25 99 93 79 41 99 5 79 61 63 21 63 97 99 29 79 5 99 61 99 5 99 97 99 77 83 97 95 61 99 73 99 73 63 73 99 61 63 25 83 41 63 81 63 45 91 65 83 41 47 77 67 57 83 81 47 93 91 65 63 49 63 45 47 41 83 61 99 85 87 77 31 85 71 41 31 89 67 89 47 77 83 69 67 89 31 89 83 61 87 61 47 61 55 89 27 73 31 81 31 37 91 89 31 89 47 89 51 89 15 73 67 61 87 37 15 93 99 89 95 89 31 93 71 1 27 73 31 89 15 97 99 89 83 53 71 97 47 73 59 73 51 89 15 73 31 89 91 73 51 73 51 73 55 73 83 73 75 73 35 73 35 53 83 73 91 73 35 73 31 73 71 73 31 73 55 37 99 73 35 37 99 73 99 25 51 85 31 37 91 69 51 73 75 73 95 73 76 50 84 78 48 86 92 50 64 82 72 86 96 66 44 50 96 66 84 70 88 70 84 18 84 66 52 66 48 90 92 66 32 86 12 66 92 50 84 86 40 90 60 86 84 50 48 86 32 86 60 50 96 34 100 54 60 86 48 86 56 86 88 90 56 86 76 86 52 70 48 54 96 50 96 86 100 70 96 70 16 78 40 50 76 70 84 34 12 34 88 34 40 54 40 70 60 86 92 66 92 18 76 50 76 34 92 14 76 54 92 18 80 70 92 58 48 34 76 50 92 86 76 18 36 70 76 18 92 58 96 18 96 54 76 14 92 18 76 66 76 70 92 54 76 86 92 38 76 98 60 90 92 34 96 18 60 74 96 14 76 54 76 98 76 90 60 62 24 42 60 82 60 54 60 2 96 22 96 82 60 94 60 6 60 58 60 78 60 34 60 58 60 14 100 98 96 22 20 74 84 66 64 58 80 62 8 90 80 70 100 18 44 86 44 22 44 2 92 58 80 70 44 82 60 94 80 42 44 46 8 46 88 98 64 94 80 58 100 78 28 6 8 14 28 6 28 74 28 74 76 70 52 10 28 42 80 34 96 94 8 38 100 86 60 66 96 70 40 82 80 22 60 74 28 18 80 41 11 21 51 85 95 77 99 93 15 97 75 41 79 77 95 1 95 21 99 77 99 1 83 57 79 93 95 21 83 97 27 57 83 93 51 69 99 57 79 57 63 57 51 21 99 25 95 21 99 21 63 21 63 21 79 5 23 21 99 21 79 57 79 21 99 5 99 93 15 21 99 5 67 61 99 77 95 93 99 77 95 5 99 61 71 5 63 5 99 61 79 73 99 57 99 41 99 93 99 25 83 41 99 41 63 1 99 5 99 57 95 97 99 81 99 25 99 53 47 89 63 29 31 69 99 49 47 9 79 81 99 5 63 77 31 45 47 89 51 89 31 77 43 5 47 49 11 89 31 37 15 89 11 89 47 5 67 45 99 37 47 89 31 93 83 1 47 45 31 49 31 85 31 37 87 5 59 53 99 89 15 29 71 89 63 53 67 89 31 81 67 89 95 89 15 73 51 89 51 73 99 89 87 89 87 73 31 89 15 73 71 81 99 89 43 73 43 73 71 73 35 73 35 89 35 73 63 73 51 73 67 73 87 1 87 73 59 73 67 73 67 73 87 73 67 89 87 73 87 73 15 73 35 37 47 89 75 73 55 89 35 53 31 73 55 93 27 73 99 73 55 53 91 33 99 73 36 86 100 66 48 70 60 50 76 70 84 66 12 86 76 66 96 86 84 86 68 66 96 74 92 86 92 86 96 42 28 66 96 86 68 50 96 54 100 86 88 50 24 18 16 86 96 86 48 22 36 14 32 70 32 86 48 70 96 86 92 86 24 86 92 50 68 38 84 86 96 86 84 34 24 86 96 86 72 86 92 86 52 70 88 86 96 70 92 70 96 50 92 74 92 54 96 86 32 50 92 70 68 10 92 18 52 18 76 66 92 34 32 18 80 50 48 34 76 34 28 18 96 38 28 18 52 18 76 90 92 18 76 54 76 90 88 2 92 42 40 58 92 70 60 38 76 62 92 74 40 86 96 50 80 98 76 54 28 34 76 54 96 70 92 2 96 14 96 70 96 34 96 54 96 94 60 2 76 54 60 74 60 42 60 42 60 58 60 82 60 78 60 38 60 46 60 26 76 54 96 70 80 38 92 42 44 46 60 94 96 42 60 94 44 62 96 34 60 70 44 98 64 82 28 38 60 62 8 42 96 78 44 94 28 70 64 74 28 54 64 62 28 10 64 86 64 78 28 22 28 74 8 58 92 58 100 82 72 58 28 46 64 18 100 70 56 34 80 94 60 98 8 46 44 38 96 93 95 93 95 25 51 97 99 25 79 21 79 57 99 41 79 77 63 93 59 1 79 93 83 57 75 81 95 93 79 57 79 93 3 57 95 5 95 93 47 93 95 57 59 77 95 21 95 21 63 41 47 21 95 57 79 97 63 21 71 41 79 21 83 57 67 21 31 5 99 41 63 57 79 5 99 77 95 57 95 5 99 81 99 25 99 5 11 57 79 5 99 97 99 41 99 61 99 93 63 5 99 41 99 21 99 81 99 73 99 21 99 25 3 77 63 61 31 77 99 93 63 81 75 81 63 21 79 61 75 97 79 9 47 57 63 57 47 25 47 93 83 97 83 93 47 29 99 89 31 85 99 5 27 61 47 17 47 41 15 65 63 73 67 89 63 97 31 97 47 73 15 85 31 89 91 89 27 73 31 73 79 89 87 89 31 89 31 73 31 37 51 85 15 53 31 49 31 65 67 89 51 89 83 89 47 73 51 73 3 73 95 89 99 73 43 73 71 73 31 73 27 37 83 41 91 73 15 73 91 73 67 53 11 41 51 73 51 33 51 73 87 21 11 97 23 73 67 37 55 73 99 73 87 89 43 89 79 89 63 77 43 37 51 73 91 73 95 77 83 61 79 73 87 85 55 17 60 42 32 50 84 66 64 86 48 14 60 50 88 66 92 86 52 86 48 50 48 78 84 86 60 62 88 66 24 74 72 66 32 78 60 66 84 34 52 66 44 50 48 86 96 86 92 86 68 22 32 86 100 86 76 86 48 86 28 86 60 86 64 86 88 86 24 86 32 70 68 90 92 86 48 54 8 70 100 70 92 70 92 70 12 54 92 90 56 70 68 34 92 70 80 70 60 34 48 38 92 34 76 86 92 70 44 54 40 50 48 70 52 90 44 54 92 70 92 74 40 18 60 70 32 18 60 54 76 54 40 54 96 70 56 18 84 38 40 18 64 90 96 50 72 90 96 46 96 90 96 18 76 74 44 2 92 34 76 86 96 58 44 22 96 70 60 82 60 70 80 26 96 70 96 82 96 90 96 98 96 6 60 86 60 78 60 66 60 66 60 98 60 74 80 58 8 58 28 78 60 74 40 74 8 6 44 82 8 98 44 62 80 78 68 22 44 54 8 54 28 82 96 46 60 26 76 46 64 62 28 98 64 50 84 82 80 38 44 82 44 62 8 98 12 70 44 58 8 98 28 26 28 58 96 62 28 46 64 90 44 78 96 94 100 10 100 6 100 26 60 46 60 54 92 78 96 61 67 57 55 21 99 61 79 21 91 93 95 57 47 77 83 57 43 5 79 93 27 33 75 57 95 21 99 21 67 41 95 57 95 57 79 93 99 57 95 57 99 41 95 57 39 93 59 97 95 41 79 93 99 41 7 41 79 57 27 5 95 25 83 45 99 49 63 93 99 5 75 21 99 57 99 5 79 1 79 5 95 41 95 77 99 5 99 29 83 93 99 61 99 29 99 61 99 5 99 41 99 53 99 69 99 93 99 77 99 93 99 25 99 25 63 41 99 89 99 73 11 13 67 61 99 77 83 45 79 97 83 65 99 85 83 93 83 93 67 65 67 93 83 29 99 13 47 9 47 37 83 45 79 89 79 77 31 21 31 57 31 89 99 41 63 53 95 89 47 97 31 89 31 9 27 21 35 53 31 97 51 77 83 57 67 69 15 89 67 89 15 53 83 65 51 89 31 89 87 89 91 89 87 73 35 89 35 73 15 89 15 89 35 73 67 89 79 73 87 89 35 89 19 73 71 37 71 73 35 73 91 73 71 73 71 73 83 89 27 73 67 73 51 73 91 37 35 81 15 73 71 73 51 37 47 37 95 81 91 73 83 37 71 73 99 69 87 65 87 69 55 89 63 73 35 73 68 86 48 86 48 22 12 86 84 86 84 66 32 34 84 70 48 54 84 14 44 66 12 50 84 54 52 70 92 66 88 14 68 50 48 86 76 70 40 86 100 98 84 86 12 86 32 74 92 86 64 86 12 58 16 86 92 86 48 86 92 66 48 66 68 70 48 86 32 86 44 18 60 70 96 66 68 66 100 86 100 86 44 54 84 70 92 86 84 54 76 70 92 70 92 70 76 70 92 94 76 70 16 70 100 86 84 10 92 54 12 18 16 34 48 70 28 18 76 70 76 34 76 18 92 42 96 18 92 18 92 54 84 86 84 54 60 18 60 86 80 22 80 34 88 34 60 94 96 94 96 74 40 2 76 94 76 66 76 14 76 2 92 54 76 90 60 94 44 94 60 46 60 90 60 98 80 58 44 22 96 38 96 6 76 74 80 94 60 90 92 78 80 78 44 86 96 74 96 54 60 78 44 98 96 90 76 6 96 22 92 78 28 18 60 94 80 70 96 6 28 90 80 58 8 82 96 18 44 98 96 98 8 42 64 78 60 38 96 70 96 58 60 26 100 58 44 86 96 38 28 70 64 66 48 38 28 6 84 70 80 46 28 42 28 94 48 70 80 98 80 10 44 74 44 98 28 93 99 93 99 93 23 57 99 57 63 93 99 57 95 57 79 41 99 49 83 57 63 93 91 57 83 57 51 41 99 57 63 57 99 41 99 57 95 57 83 57 67 57 99 57 79 57 3 77 63 5 99 21 99 21 95 57 83 21 87 57 63 29 99 57 31 41 79 21 95 93 83 41 75 41 99 77 79 25 79 41 99 5 83 93 99 41 99 77 99 41 63 61 51 25 79 97 63 5 99 97 99 25 79 25 79 5 99 5 99 45 99 89 47 69 99 93 99 25 99 53 99 25 83 65 95 29 95 81 99 5 83 41 79 61 83 57 99 5 99 25 83 65 99 93 99 77 47 77 99 25 83 73 63 77 47 73 87 65 83 57 99 85 75 29 83 5 31 1 31 89 99 49 31 93 63 9 31 97 83 89 51 89 51 89 31 97 31 89 87 89 87 73 67 53 87 89 15 89 83 33 31 53 15 89 67 89 63 89 47 73 99 49 43 89 79 73 15 89 99 73 27 61 51 85 47 73 87 73 15 73 83 73 11 73 15 73 79 73 87 81 15 73 95 73 91 37 27 45 19 73 51 29 91 73 15 73 11 73 19 89 55 93 99 53 99 73 71 73 71 89 15 65 31 73 51 53 52 66 48 74 64 66 32 74 48 46 68 86 32 86 12 86 12 90 60 70 60 70 32 50 12 86 84 86 96 34 48 66 92 54 48 90 32 74 24 86 12 86 92 50 76 86 48 86 60 70 92 86 84 86 12 70 76 86 84 50 80 86 40 86 84 86 72 86 92 86 92 54 76 54 72 54 92 34 20 86 92 70 40 86 28 18 92 34 100 82 48 82 40 70 84 54 84 82 92 50 76 70 92 70 8 54 92 54 68 38 44 66 8 42 92 34 44 86 76 54 48 58 40 86 96 18 8 62 76 14 76 38 76 70 16 38 92 74 60 66 92 46 96 42 40 2 96 38 80 38 12 18 60 18 96 70 100 18 28 62 96 42 80 86 96 94 60 70 96 54 96 94 60 86 72 74 60 94 96 78 60 94 76 78 60 94 92 82 60 70 60 78 60 70 60 94 44 46 96 66 96 78 60 58 44 54 40 22 100 90 60 86 28 58 44 6 44 78 64 38 96 98 44 54 80 46 96 26 96 42 64 22 80 42 8 98 44 38 24 78 40 86 96 70 44 42 44 94 64 58 28 98 28 50 64 42 44 78 92 78 80 90 24 78 28 58 44 82 28 70 64 62 28 70 60 82 28 45 99 21 79 77 99 97 99 21 95 93 39 21 63 57 7 57 95 57 79 57 95 93 79 1 99 57 3 21 95 65 79 57 99 1 67 61 83 93 99 57 99 93 79 57 63 57 99 57 99 57 99 21 67 77 99 29 51 41 79 93 63 77 67 41 95 57 27 77 95 41 51 1 59 21 99 5 99 41 63 5 99 5 99 41 79 93 99 81 95 93 99 5 99 5 99 25 79 53 99 53 99 73 99 5 99 77 99 41 99 25 99 61 99 61 67 41 99 65 47 41 87 65 67 57 47 73 99 65 95 97 83 89 83 61 83 81 83 77 47 93 79 89 99 41 83 81 67 41 83 25 87 25 47 93 43 41 71 41 31 93 83 89 31 89 31 73 67 77 31 49 31 45 67 73 95 33 31 13 31 97 63 89 35 73 67 73 67 53 51 37 71 57 67 57 31 53 99 89 99 89 35 73 51 89 83 89 83 89 71 73 35 73 51 89 15 89 31 73 83 97 91 89 87 37 87 73 91 73 87 73 55 73 99 73 91 73 87 73 83 73 67 93 83 89 35 49 15 37 51 37 91 53 87 37 35 89 35 89 91 53 51 89 15 73 19 57 83 37 19 73 51 25 71 77 83 73 32 86 96 54 48 86 84 82 48 50 40 50 84 66 68 70 96 18 84 78 32 90 68 66 48 86 68 70 32 66 12 86 84 62 52 86 72 86 32 86 84 74 88 86 84 86 88 94 68 86 92 86 100 86 36 86 68 86 36 86 88 70 12 86 68 86 12 82 92 86 48 98 84 86 96 10 72 66 32 70 12 74 88 50 12 70 96 70 12 34 92 70 84 70 32 50 52 70 96 70 92 86 60 74 92 70 68 70 36 34 92 90 24 86 80 66 24 90 92 54 92 18 92 18 20 18 80 54 8 14 96 90 76 38 92 98 16 54 12 18 92 70 92 98 64 42 56 50 64 18 76 2 96 22 96 94 88 58 76 38 96 2 76 82 44 74 96 34 96 54 40 2 96 78 60 18 96 90 96 62 96 10 60 38 96 78 60 58 96 70 44 78 44 66 60 18 80 86 60 58 96 82 64 18 96 74 92 90 92 94 44 26 80 26 96 78 44 2 80 82 96 22 64 74 84 66 44 90 44 26 44 86 76 46 80 98 100 50 28 6 80 86 80 94 80 46 44 38 28 14 64 98 28 22 100 94 44 26 28 62 28 42 80 42 92 90 60 94 80 82 100 66 12 42 64 74 100 21 95 77 11 93 99 97 95 93 79 93 3 93 43 77 67 65 95 57 19 93 59 5 63 25 63 45 95 57 75 21 95 57 71 57 95 25 95 57 99 77 3 57 99 93 95 57 95 57 79 93 7 57 83 21 47 57 87 65 99 77 99 57 99 21 99 41 99 37 99 41 95 57 99 89 99 5 99 5 99 77 99 5 99 61 99 61 83 37 99 41 63 93 99 89 99 77 95 73 99 77 79 25 99 57 99 21 99 21 83 9 67 25 99 81 99 61 67 81 83 97 79 57 83 41 83 5 99 9 83 81 99 89 83 93 83 45 83 57 83 93 47 53 51 97 83 65 67 97 47 65 87 77 83 17 47 25 87 53 47 9 47 93 31 81 31 89 31 57 47 89 83 25 39 89 51 89 67 89 31 89 31 69 31 89 31 13 51 57 35 89 67 53 67 53 51 25 67 89 67 93 95 73 87 73 47 73 15 85 51 85 51 85 55 73 15 73 67 93 51 89 55 73 55 73 51 73 51 89 51 73 99 73 71 73 91 73 87 73 51 73 95 89 91 73 11 73 87 73 47 73 15 73 59 25 19 73 15 89 87 73 87 81 91 37 55 49 83 73 35 73 15 73 59 53 51 73 64 66 64 86 76 86 72 70 12 86 12 86 12 18 92 94 12 82 40 86 60 66 44 86 64 86 12 86 72 86 52 70 56 66 84 90 60 70 92 50 60 86 24 50 92 70 48 86 48 82 88 50 4 86 88 86 52 86 20 34 76 86 80 86 12 86 92 70 48 90 96 86 80 70 60 86 76 70 92 70 84 98 92 86 92 70 64 70 88 70 76 70 24 70 76 18 92 70 72 34 68 86 96 70 92 90 40 70 64 66 76 70 92 14 92 34 96 70 92 46 48 18 68 18 12 86 96 18 48 18 100 54 96 54 92 18 32 70 84 18 76 38 96 54 24 18 76 94 96 54 76 34 76 94 76 58 60 2 60 70 60 22 96 98 96 58 24 18 96 94 76 70 96 54 96 18 76 58 96 38 96 42 96 58 80 22 96 78 96 90 28 22 60 74 96 2 60 62 100 62 96 86 80 90 60 50 92 62 80 74 44 6 100 74 84 94 96 78 44 62 64 2 44 34 96 78 8 90 28 86 80 94 80 74 28 98 28 10 28 54 68 58 28 46 64 50 28 78 100 58 28 66 84 78 44 34 28 58 28 82 80 26 64 98 100 46 44 42 100 10 100 90 76 78 32 74 44 41 71 93 91 57 83 93 63 57 99 93 51 93 11 57 95 77 67 77 83 57 23 93 95 93 67 57 95 57 31 57 15 93 99 57 63 77 95 21 75 93 27 21 27 57 87 93 99 57 83 5 79 65 87 41 99 69 83 57 99 93 47 21 99 41 7 57 99 5 95 5 99 61 67 41 51 41 99 5 99 21 87 77 99 61 99 41 99 41 67 93 51 61 99 53 63 25 95 61 99 93 87 5 63 9 99 25 99 41 99 9 99 93 79 49 31 5 99 49 99 25 47 25 99 53 99 41 71 5 83 5 47 61 83 9 51 45 99 93 99 5 47 77 67 69 99 53 99 13 83 41 83 41 99 41 83 89 67 41 87 61 31 89 31 61 11 77 31 61 67 89 83 73 67 85 31 89 47 73 31 33 31 89 99 97 31 89 71 73 31 89 51 37 67 77 83 97 99 89 99 89 35 89 71 73 47 53 63 89 15 53 99 9 51 89 51 37 31 89 47 89 31 73 31 89 83 69 35 73 87 73 35 73 95 73 67 73 71 89 83 53 27 93 15 73 83 73 99 73 51 73 95 73 15 65 51 97 67 89 51 37 15 65 31 37 91 73 51 81 47 73 47 73 31 73 15 37 84 54 48 98 80 38 92 86 32 98 76 98 76 66 12 54 32 70 84 66 80 98 64 50 48 86 84 50 80 66 68 74 96 66 12 66 84 86 12 86 68 86 88 86 72 70 12 66 12 86 12 86 84 66 32 86 12 86 32 78 80 86 96 50 48 86 100 86 12 50 12 86 32 86 76 86 76 86 96 66 76 70 48 70 48 70 48 34 12 70 32 70 52 70 16 54 16 54 60 50 84 70 52 14 84 58 52 70 40 50 76 90 100 38 96 18 84 70 52 34 44 54 92 54 80 94 76 54 92 90 76 34 40 58 76 2 92 38 92 74 80 38 80 90 60 54 24 90 96 38 88 38 40 54 96 66 96 54 32 90 96 38 36 78 96 62 96 2 96 58 96 74 60 42 92 18 80 50 96 78 60 94 40 74 96 22 96 86 60 18 96 94 60 82 96 50 80 66 24 54 44 78 80 94 96 98 96 34 80 62 64 58 44 6 44 90 80 54 64 42 44 58 96 82 28 22 80 90 44 34 68 82 60 58 28 58 8 46 44 58 64 58 80 6 44 82 28 62 80 26 28 82 40 2 88 90 100 6 100 58 44 38 72 46 64 54 100 82 28 6 64 98 64 46 28 58 64 57 83 93 63 5 99 97 19 93 79 93 87 93 95 57 79 77 79 41 99 41 79 93 79 93 95 57 27 81 43 93 83 93 95 57 95 77 95 57 3 57 75 21 39 57 79 81 43 41 99 97 79 57 7 93 75 77 79 93 99 57 63 21 99 5 79 77 27 93 83 93 79 41 63 97 27 41 95 77 99 41 99 5 99 57 99 77 99 21 99 93 99 41 99 61 99 77 99 25 99 25 99 97 47 61 99 41 99 77 99 37 99 9 99 61 63 85 83 57 99 57 83 25 83 25 83 25 83 25 83 41 83 65 83 93 83 29 63 85 83 81 63 57 99 65 47 93 67 37 83 81 63 85 35 93 47 89 87 77 99 9 71 89 67 81 47 5 87 89 51 85 31 89 31 73 51 77 83 89 95 53 15 49 51 89 99 89 79 73 15 85 15 89 31 89 67 85 15 89 95 73 67 73 15 13 15 89 15 53 67 73 71 97 87 29 15 73 55 93 11 37 87 73 51 89 99 73 71 73 55 53 15 73 99 73 87 73 87 73 51 73 83 89 35 89 83 41 31 73 35 41 99 85 99 89 55 65 31 37 35 73 15 69 63 77 55 73 67 73 83 97 83 69 99 77 79 69 84 98 84 86 44 54 48 50 56 70 84 86 88 74 76 90 12 18 88 86 96 50 76 86 48 86 76 50 100 86 48 50 72 50 88 14 92 66 96 90 88 90 68 86 12 70 84 86 84 50 92 34 76 90 52 86 96 66 84 34 100 34 96 86 12 86 48 70 96 74 32 90 100 90 92 86 76 50 48 90 72 70 48 70 80 70 92 70 72 70 80 70 48 70 96 70 96 86 52 54 60 86 100 18 92 54 96 90 76 54 96 90 92 18 60 18 76 22 96 70 96 50 60 54 96 90 72 98 96 50 60 58 96 18 76 18 96 42 96 54 96 90 68 82 92 38 60 2 96 90 96 26 92 2 96 70 80 70 60 58 80 94 96 94 96 22 36 94 96 2 96 22 96 90 96 74 96 90 96 2 96 74 80 62 28 2 96 90 60 86 80 6 60 82 44 26 44 78 80 10 80 74 96 58 96 82 76 98 80 94 44 22 44 42 80 26 80 70 44 98 80 82 44 38 44 86 28 78 44 82 28 98 80 54 64 86 64 6 80 82 60 90 64 42 60 94 100 74 28 98 100 14 28 42 44 38 92 98 64 10 84 94 80 70 100 10 80 46 8 26 28 26 72 42 28 26 80 5 79 93 95 93 91 93 35 57 75 93 3 77 87 1 31 93 11 57 11 57 95 57 87 93 79 57 79 57 95 25 71 57 47 93 99 93 99 93 95 5 3 57 95 57 95 93 31 57 83 57 99 57 95 57 83 57 55 77 99 97 75 97 99 41 63 41 99 5 95 81 99 61 99 41 59 93 99 41 99 5 79 41 99 41 39 77 95 41 99 57 99 5 99 41 99 5 99 5 99 61 79 57 83 5 99 45 99 25 99 57 99 73 99 37 67 65 79 77 99 9 83 77 83 89 83 61 83 73 83 97 99 89 63 65 83 17 83 57 83 25 83 93 67 45 83 1 83 97 83 85 47 77 51 73 87 97 47 61 67 85 19 89 83 97 83 89 83 97 83 65 27 41 31 37 87 61 83 77 51 77 15 53 51 89 63 45 31 73 99 89 51 89 15 81 31 93 31 89 19 69 15 77 19 73 47 85 87 21 15 81 59 89 55 53 51 45 67 25 31 73 19 89 79 37 71 41 47 37 15 73 35 73 99 89 83 97 15 73 79 73 35 73 15 73 67 85 35 37 35 13 83 73 35 81 87 25 35 73 19 89 55 89 67 73 47 73 95 61 83 85 99 61 51 73 47 73 68 42 52 86 48 46 96 86 100 70 60 66 12 70 84 98 48 86 48 86 12 66 12 86 84 70 60 46 88 98 48 86 68 86 84 86 40 86 48 86 20 86 84 22 12 58 84 90 96 54 84 86 12 86 12 86 68 50 12 86 60 86 12 86 68 90 48 34 96 86 88 86 68 50 84 74 16 70 76 86 92 54 100 70 76 70 80 70 100 70 68 14 48 70 32 70 92 58 96 18 48 54 92 34 48 34 96 70 36 90 96 66 68 70 96 90 92 54 100 38 56 18 76 86 96 54 96 54 92 54 92 18 20 54 96 38 92 98 96 38 92 54 76 90 92 98 76 54 96 22 76 38 96 22 76 38 96 26 76 34 92 42 96 66 96 58 64 54 76 74 96 54 44 62 60 78 44 62 40 94 96 74 40 94 96 54 80 90 92 38 80 74 96 38 44 74 44 50 80 74 96 90 80 74 80 78 96 90 44 98 44 78 60 10 96 86 44 38 44 46 96 82 44 46 76 42 8 98 28 94 96 14 28 38 28 42 44 6 64 82 100 50 64 42 28 82 28 82 28 50 28 78 28 62 28 98 64 66 28 26 24 98 64 58 64 70 28 78 80 98 80 26 8 82 64 94 44 77 55 93 79 93 95 41 83 5 95 93 95 93 63 93 79 93 95 93 83 93 79 57 3 65 51 93 99 93 91 93 99 93 63 57 79 93 99 77 75 57 99 57 47 57 95 57 83 93 99 21 83 93 95 57 99 1 99 41 39 93 99 93 99 41 83 77 75 77 59 41 95 41 99 77 63 41 47 41 99 21 99 5 3 57 83 49 99 77 99 57 99 57 99 25 99 81 99 77 67 61 99 97 79 81 99 77 63 9 99 5 99 41 71 57 83 9 99 5 47 89 99 89 99 93 83 41 83 25 99 1 99 9 47 41 83 61 83 1 83 45 99 97 63 25 47 89 31 45 83 41 67 93 83 45 67 81 31 85 83 81 51 61 99 73 67 73 31 89 51 93 67 85 67 53 23 69 67 77 99 89 51 93 87 89 63 85 63 17 67 89 83 13 67 81 15 89 35 65 67 73 15 45 67 61 83 73 51 89 15 73 71 89 83 73 55 73 15 73 95 97 83 89 67 73 91 73 71 73 87 73 67 89 55 37 35 89 55 73 79 73 59 37 55 85 99 73 19 13 71 73 55 53 87 89 75 37 99 73 51 73 35 89 95 73 79 13 99 89 83 73 99 73 99 73 79 73 84 58 56 78 68 70 88 66 48 70 92 86 76 66 44 86 48 86 24 98 92 86 48 86 24 86 32 86 84 66 12 90 72 50 56 14 84 86 12 50 12 22 68 70 48 86 12 70 12 78 80 86 40 86 88 86 8 90 4 86 52 54 12 86 48 86 92 90 88 86 36 70 84 22 48 66 28 34 76 86 52 86 92 70 60 70 92 70 92 70 96 70 32 70 48 54 36 34 92 70 64 50 100 54 80 70 56 70 52 70 96 86 100 66 60 18 76 70 84 54 76 90 92 90 80 54 76 50 88 90 96 34 48 54 96 54 80 54 76 82 88 74 92 74 48 2 76 22 76 54 92 2 96 34 32 66 76 70 60 2 96 94 96 6 60 90 96 62 96 90 96 2 96 90 96 94 64 94 96 22 96 82 96 78 44 62 60 54 84 62 44 58 96 22 80 86 60 62 80 38 44 22 80 94 44 90 44 74 96 62 96 94 64 62 80 66 44 90 96 98 80 82 100 78 100 22 44 34 28 74 76 54 28 38 28 22 44 90 100 62 100 86 64 58 64 90 64 34 60 18 44 78 72 78 28 98 100 98 92 26 100 34 80 38 64 82 28 62 40 22 28 6 28 98 100 82 8 21 87 93 99 93 91 57 95 93 11 93 63 93 95 57 95 93 95 77 95 57 35 41 91 93 87 57 79 93 91 93 43 93 23 93 83 57 67 93 95 93 79 93 95 77 99 41 83 57 95 41 95 93 47 57 63 45 27 21 95 57 91 93 67 41 79 41 15 41 99 97 95 93 99 5 99 61 99 61 63 25 35 93 99 93 79 97 87 77 83 41 11 41 63 41 99 9 99 25 83 25 99 61 27 25 99 21 99 97 83 97 99 97 47 9 83 41 99 77 83 89 51 97 79 9 83 77 83 21 83 25 31 81 83 61 83 5 83 13 83 77 47 81 67 45 83 81 83 41 99 53 83 53 67 45 67 97 47 1 35 85 67 53 67 29 67 97 83 45 67 9 51 81 15 41 83 73 31 9 67 45 35 73 67 9 87 73 51 61 83 89 51 65 15 5 51 77 15 89 51 13 55 77 27 53 67 45 83 89 11 89 47 89 11 89 51 89 95 97 71 89 35 73 51 73 55 61 15 45 35 73 31 49 95 73 71 33 51 73 83 89 55 73 71 13 79 89 19 73 15 73 23 73 15 53 87 53 99 61 99 73 15 89 51 73 35 73 11 57 71 33 19 73 35 73 15 73 84 82 84 18 68 66 84 66 48 98 52 94 84 70 16 50 84 86 12 90 84 86 76 66 48 34 32 54 48 34 12 50 32 70 32 86 56 86 48 86 48 50 48 86 56 70 60 86 84 70 12 34 88 34 48 22 92 86 48 50 12 70 48 66 76 90 92 86 84 86 76 50 68 70 80 42 96 86 52 70 52 70 12 66 48 34 52 70 28 14 92 70 92 70 52 70 32 74 64 34 100 54 32 18 96 86 80 54 96 70 48 54 92 38 68 54 8 74 96 34 84 90 28 54 96 54 44 54 96 90 96 2 56 18 40 86 96 38 92 18 64 78 60 74 84 18 92 38 92 2 68 50 80 94 96 74 96 78 76 74 96 38 96 58 96 90 96 78 60 54 96 22 96 22 96 58 96 78 96 94 96 98 96 58 96 38 96 34 76 70 96 78 96 46 44 82 64 78 60 58 80 6 80 26 60 78 60 94 60 94 64 78 44 22 80 6 80 82 28 74 96 6 64 82 80 78 80 74 44 2 28 10 80 90 28 98 100 22 80 94 64 38 28 62 24 78 28 94 28 42 8 10 96 94 24 94 100 98 28 26 28 46 96 82 28 34 100 74 80 78 28 82 76 74 92 46 64 93 3 85 99 57 99 77 95 93 3 57 79 93 99 5 39 81 39 77 79 57 95 61 47 93 63 57 63 93 79 93 91 57 91 93 99 41 51 93 75 93 67 21 63 57 83 21 99 57 47 93 95 77 83 41 95 97 87 77 99 41 79 77 99 41 63 41 47 41 63 77 99 41 99 57 99 41 99 41 99 61 87 57 95 81 99 93 27 41 47 77 83 5 99 93 83 85 83 25 99 93 83 25 99 41 99 89 67 9 67 25 99 61 99 21 83 57 99 25 87 25 99 73 99 97 99 61 83 29 79 81 83 61 67 77 83 77 83 97 83 93 83 41 91 53 51 9 31 69 47 97 31 53 67 57 87 29 83 25 67 89 51 5 67 85 83 89 67 65 31 45 31 29 67 37 67 13 31 1 15 53 83 65 31 33 51 13 15 73 31 9 35 89 87 73 99 69 15 45 15 45 15 73 55 73 15 89 15 73 51 69 47 73 95 73 71 89 35 73 99 25 87 73 87 73 83 5 99 57 27 73 51 37 99 73 55 89 35 29 71 73 79 73 71 73 19 81 91 73 35 73 35 57 47 73 87 97 67 73 55 93 51 73 19 77 43 17 71 89 99 37 35 73 35 89 55 37 64 70 88 94 68 86 84 94 40 86 68 70 32 34 56 82 84 50 84 74 84 54 68 70 84 90 72 46 12 70 12 86 12 86 84 86 96 86 16 86 72 70 48 86 84 86 12 86 48 58 68 70 64 90 84 90 20 70 92 86 8 70 68 78 80 70 84 22 48 70 48 70 76 70 88 90 16 86 12 70 80 70 72 86 84 70 48 86 12 66 12 74 68 38 84 70 96 70 92 70 96 54 92 86 92 50 92 54 92 90 92 78 60 74 72 94 76 86 68 38 96 86 68 98 68 74 64 54 76 94 64 38 52 2 44 54 84 54 96 98 52 90 76 86 60 38 96 90 32 2 96 2 8 94 96 86 92 54 80 90 80 14 96 98 76 78 100 94 96 58 96 74 100 2 100 22 60 10 96 34 96 6 96 58 96 98 96 54 96 98 96 38 44 42 84 70 60 86 96 58 80 54 44 58 80 82 96 74 80 58 80 58 44 66 44 86 80 74 44 18 80 94 44 38 28 46 28 34 44 94 28 66 64 22 28 46 28 94 24 58 28 42 100 98 96 6 28 58 28 38 84 90 24 10 28 94 76 46 80 70 28 74 80 98 28 66 44 94 96 78 80 22 64 14 44 98 28 93 95 93 95 93 75 57 47 93 51 93 63 45 99 57 27 93 95 41 83 21 83 69 15 1 59 93 79 57 63 77 7 77 95 93 55 57 95 93 95 93 3 93 95 77 99 57 91 93 39 77 95 41 39 77 79 21 79 81 99 41 99 57 99 41 99 41 95 41 99 77 63 77 99 41 99 41 31 77 99 41 99 81 83 41 63 81 99 77 99 9 39 41 99 21 83 97 99 25 99 41 27 5 99 61 99 25 63 9 83 93 99 89 83 45 83 25 99 77 83 81 99 41 83 41 83 45 83 29 99 77 83 61 83 37 83 37 83 9 91 9 83 49 67 97 99 5 99 61 79 45 67 93 87 89 51 53 83 77 99 73 67 97 67 53 67 97 67 77 99 73 87 97 67 25 47 69 31 61 67 53 27 45 51 81 71 9 67 45 51 85 15 85 67 73 15 25 51 33 15 73 15 9 15 73 15 85 15 89 15 73 15 33 87 21 55 17 27 73 79 53 51 89 15 53 67 5 31 89 63 89 71 73 79 97 71 37 99 77 87 69 55 73 91 53 35 53 31 73 19 89 87 89 75 1 67 97 15 73 99 37 95 73 67 37 71 73 55 53 27 17 19 49 87 73 47 53 76 78 56 86 12 66 80 90 48 54 48 74 52 86 12 70 84 66 48 62 100 70 48 46 84 70 76 74 72 86 32 86 40 86 12 50 92 74 100 86 48 86 32 66 48 70 12 86 88 54 60 86 12 86 76 86 76 54 32 66 84 70 56 90 92 86 76 70 92 70 84 50 96 58 68 90 80 94 72 70 88 54 52 70 92 22 88 90 92 18 68 70 16 70 48 90 16 70 44 18 60 54 96 22 48 54 92 70 76 70 76 90 32 70 68 74 16 70 64 18 60 54 20 54 28 86 96 38 12 54 60 70 40 54 16 22 96 94 96 2 96 62 40 2 72 78 96 2 96 74 96 38 96 38 96 22 96 22 96 54 96 86 96 38 100 90 96 78 96 94 64 94 96 94 96 74 96 18 96 90 96 74 96 58 64 82 96 78 96 22 96 6 96 94 80 34 80 78 44 62 96 82 96 74 96 58 44 78 80 90 80 90 80 62 28 90 100 98 100 78 24 58 64 46 64 6 64 58 64 54 28 26 64 86 96 70 28 86 28 46 64 10 32 82 60 46 64 70 28 58 28 74 64 54 60 98 96 70 28 82 64 6 64 78 92 58 64 94 60 10 28 78 84 70 96 26 64 77 59 93 63 65 67 57 95 41 95 93 99 93 63 97 83 57 95 97 39 93 79 81 95 93 39 93 99 93 79 93 3 93 95 93 59 93 75 57 51 57 23 57 79 93 79 93 63 93 95 77 99 41 99 57 43 37 83 97 83 41 43 41 63 93 71 57 95 41 3 5 67 41 79 41 83 37 23 5 99 77 47 25 99 25 39 81 31 25 47 25 99 41 79 77 79 29 83 77 83 21 79 77 67 61 39 97 83 25 47 97 99 25 99 77 47 57 51 81 63 41 83 53 83 9 31 61 83 93 83 45 83 9 83 61 31 93 83 61 83 25 87 13 83 37 83 81 83 45 83 89 67 45 83 9 83 29 67 65 11 61 67 45 67 89 31 93 67 81 67 69 15 5 71 93 99 45 67 53 51 77 47 89 15 81 67 73 51 81 15 77 51 29 31 77 15 89 31 57 15 73 67 97 51 89 87 89 47 73 15 73 35 65 67 89 15 73 35 69 35 73 83 89 67 89 91 53 95 37 63 97 55 97 95 85 67 69 35 81 83 81 87 37 87 73 55 65 91 73 91 1 19 73 15 89 19 73 67 69 35 69 19 73 31 73 19 53 87 81 91 73 87 73 87 37 31 77 84 66 24 86 84 74 84 86 48 98 92 86 84 66 68 62 44 74 32 14 12 66 72 86 36 70 12 46 48 58 72 66 16 98 32 50 92 86 12 86 100 70 12 90 92 34 96 54 88 70 12 34 32 86 32 86 84 86 32 86 68 50 12 50 32 70 84 90 48 86 76 86 88 70 92 90 68 86 68 70 48 90 16 66 92 70 88 70 84 54 96 70 32 90 84 94 92 70 92 70 84 86 68 74 92 54 80 90 20 54 32 54 80 54 48 54 96 54 88 54 64 54 92 54 92 54 92 18 44 14 20 38 96 90 60 54 96 54 32 90 96 34 44 38 96 38 76 70 96 2 16 22 80 38 32 54 72 38 96 10 76 70 48 74 96 98 96 74 80 78 100 86 52 94 96 6 64 2 96 26 96 38 96 62 96 6 96 94 96 22 60 50 96 18 80 38 96 54 76 78 80 94 80 6 80 94 80 42 80 82 96 94 44 26 80 58 8 86 44 22 100 86 80 94 28 66 8 78 44 62 28 70 100 2 64 98 44 54 100 34 64 34 28 98 80 78 28 54 88 58 28 98 28 90 28 82 64 6 80 98 100 90 64 98 28 70 92 10 44 98 28 26 64 10 100 82 28 93 95 21 99 93 87 21 79 93 75 93 63 93 3 65 39 57 99 93 79 93 63 57 99 93 95 93 99 93 47 93 99 93 95 93 95 41 11 41 83 77 67 93 39 57 11 93 3 41 63 77 99 93 83 41 95 61 91 21 95 41 99 77 47 77 79 9 79 41 79 25 95 57 79 41 95 45 99 77 23 61 23 41 67 97 83 61 99 9 47 97 95 5 99 93 75 25 83 85 63 5 99 57 83 25 83 85 99 25 99 93 63 61 99 57 83 93 3 5 99 93 55 61 11 5 71 25 83 61 99 81 63 81 83 25 83 73 47 93 83 61 67 57 83 77 83 81 83 85 83 97 47 97 83 97 67 89 83 29 83 33 31 77 15 77 83 9 83 89 51 89 51 13 31 89 67 1 31 37 51 45 55 77 67 85 67 9 71 77 15 73 83 89 15 89 31 17 15 25 35 57 35 81 15 73 87 73 51 77 87 73 51 41 71 81 87 73 71 65 71 65 59 57 87 73 15 73 3 73 91 73 51 73 63 29 83 65 91 53 99 81 71 89 31 73 31 81 19 97 71 29 31 13 95 73 83 73 35 97 91 45 71 21 83 37 55 89 35 89 55 61 51 73 19 73 35 41 84 66 68 54 32 54 20 74 48 98 56 14 84 66 84 66 100 66 68 94 12 70 44 86 12 34 56 78 84 86 48 86 76 66 72 90 48 86 84 86 16 38 92 54 96 86 12 86 12 86 12 86 48 86 76 66 60 70 92 70 84 6 68 90 12 90 16 86 92 30 12 66 60 38 48 86 88 90 88 54 92 70 12 70 76 70 96 62 80 86 64 90 84 54 72 70 76 90 36 90 32 90 68 94 88 90 76 26 96 70 48 54 72 54 72 54 48 54 88 34 24 54 76 90 32 90 52 54 84 90 76 38 68 94 76 2 96 22 96 38 8 2 92 18 96 22 84 54 60 90 96 26 84 66 68 2 96 22 96 54 92 58 96 38 92 6 96 2 96 2 80 18 96 94 96 86 96 66 96 30 40 90 96 70 96 78 96 22 100 98 96 90 96 2 96 58 80 58 76 42 80 94 80 10 80 42 96 26 80 86 92 26 80 90 64 54 80 82 80 82 64 50 80 82 64 22 28 70 8 46 96 78 24 98 28 58 28 74 28 58 64 82 100 74 28 10 8 82 64 58 100 26 92 74 100 62 80 62 28 62 64 30 76 46 100 6 28 90 28 46 100 54 96 34 40 42 80 93 79 93 87 93 99 57 59 57 39 57 59 93 59 93 99 93 99 45 51 93 75 93 7 93 47 93 79 57 63 93 47 57 63 77 99 57 95 57 95 57 79 77 95 93 99 77 95 45 83 93 79 93 99 77 11 77 79 81 83 41 63 97 59 77 47 41 83 41 87 41 95 41 83 41 99 93 99 37 99 41 3 61 47 57 99 77 99 57 99 41 83 77 43 61 83 61 83 77 99 45 99 61 99 25 99 41 79 77 67 61 79 89 67 45 99 77 67 9 71 45 99 93 99 65 67 33 67 97 83 73 79 69 67 41 67 25 67 41 83 89 83 9 83 41 67 61 51 17 67 9 83 9 67 37 67 29 67 93 67 93 63 89 27 85 67 89 67 97 67 77 83 65 67 93 67 65 67 89 83 45 87 65 55 89 63 89 71 81 15 53 27 37 63 65 19 89 15 69 51 73 51 49 87 73 51 69 15 61 91 73 35 73 83 33 15 73 87 93 15 85 35 73 87 13 55 89 83 53 19 65 87 73 51 25 35 53 35 21 15 73 67 73 87 73 39 17 71 37 15 65 99 65 87 53 39 37 15 81 91 29 3 45 15 21 87 73 35 29 55 33 87 89 55 93 91 61 48 86 88 90 48 66 48 62 32 50 48 86 76 50 44 86 84 66 32 98 48 46 80 86 48 70 84 54 12 86 80 86 12 54 12 86 52 90 68 98 12 94 84 50 84 70 84 70 84 90 84 86 12 94 12 70 100 66 84 86 48 90 72 86 8 50 76 70 72 86 48 70 52 90 44 70 32 54 32 70 76 70 92 90 64 86 12 54 68 90 68 70 96 54 72 70 52 70 88 70 76 90 32 66 76 54 60 74 92 54 40 54 32 90 88 90 76 54 72 54 64 54 84 54 96 70 76 74 76 38 96 18 56 54 44 18 68 38 76 38 40 38 76 90 88 38 76 22 96 6 96 90 96 54 76 90 80 74 60 54 76 38 96 54 80 70 64 34 40 38 96 70 96 50 96 74 80 70 96 90 96 38 76 90 64 6 100 74 44 94 80 22 96 78 96 94 80 6 100 94 80 26 80 78 80 94 80 98 72 90 80 94 80 94 28 70 60 98 80 70 80 82 96 90 80 82 44 42 92 86 64 58 8 94 100 42 100 74 28 38 64 98 64 90 28 86 28 78 96 10 100 78 28 42 96 98 60 10 60 70 44 46 80 82 28 6 28 70 96 42 44 94 96 98 100 90 100 93 99 93 47 93 67 93 99 93 75 93 79 93 59 57 99 21 95 93 59 57 95 5 63 77 99 93 67 93 79 97 39 93 63 57 99 93 67 93 43 93 63 93 95 93 99 93 99 93 87 25 79 57 87 29 71 77 83 77 67 77 63 65 3 77 71 57 31 41 83 97 99 77 59 77 95 77 99 41 99 61 79 41 79 61 99 41 99 41 79 25 83 41 67 81 83 41 83 1 99 25 63 85 99 41 35 9 83 65 75 77 99 45 83 97 71 61 99 89 83 97 75 81 83 9 99 93 31 97 87 97 47 41 83 89 51 97 83 77 95 41 67 77 63 25 47 89 63 21 83 61 67 89 67 81 67 93 67 77 71 85 67 97 67 77 87 73 67 53 51 89 67 73 83 9 67 97 47 81 31 25 15 29 87 73 31 89 51 57 51 41 87 89 47 73 79 93 51 89 15 45 51 33 51 65 71 97 91 69 87 37 51 89 91 85 35 81 71 61 35 73 55 89 87 73 11 73 67 81 67 97 91 73 87 97 67 73 35 45 19 73 47 33 91 85 55 73 83 77 91 89 67 73 15 97 51 57 87 89 87 77 51 85 55 85 19 97 87 21 91 85 71 61 55 37 83 73 48 94 68 86 84 54 12 86 84 74 48 66 48 86 16 86 48 42 96 58 48 90 88 86 32 90 48 86 88 90 72 90 96 82 48 50 12 50 48 86 12 90 12 86 48 86 68 66 92 70 68 66 12 70 68 90 92 70 16 70 88 50 12 86 80 90 68 86 96 86 48 98 84 86 92 62 96 82 68 90 40 18 36 66 32 70 96 90 88 66 96 54 84 78 72 90 84 38 48 70 16 90 16 90 68 90 68 90 64 90 40 74 60 54 16 90 76 54 48 54 96 90 48 90 68 54 72 90 96 2 60 70 52 74 80 70 76 30 80 70 100 54 60 34 96 90 76 38 96 34 48 38 96 22 100 74 68 2 44 54 40 54 60 58 36 90 96 2 96 10 96 74 44 86 96 2 76 94 96 42 96 94 76 70 92 38 80 90 96 22 96 78 28 94 88 94 80 46 80 58 80 94 80 94 80 42 44 62 64 62 80 78 44 38 80 26 80 46 44 58 80 38 60 70 44 2 80 62 8 82 44 58 44 62 100 62 28 82 28 78 100 70 28 90 80 82 64 94 16 42 60 62 28 46 100 58 28 82 28 10 80 10 28 78 24 94 64 26 28 94 28 18 76 82 24 62 100 93 63 57 83 57 19 93 67 57 99 93 79 93 3 93 75 21 39 93 95 89 95 29 99 93 71 93 83 93 99 93 95 93 95 93 83 93 99 93 27 93 75 77 31 93 63 57 79 77 59 93 51 41 99 93 95 77 99 61 95 25 47 41 39 93 99 77 95 65 79 41 79 45 67 45 63 77 63 77 99 93 47 41 3 25 99 93 63 93 3 93 99 93 75 77 47 61 99 77 99 57 83 25 99 97 99 25 83 25 99 25 99 25 15 81 63 9 83 77 83 97 67 65 99 45 83 97 99 97 83 9 83 61 83 89 99 41 47 85 67 49 51 29 63 97 67 13 67 61 67 85 67 61 67 81 67 69 67 77 83 25 71 69 67 61 67 9 31 49 87 93 67 89 51 81 67 77 99 77 51 85 87 41 15 57 67 33 15 33 51 69 67 1 91 85 51 53 51 77 15 73 71 73 67 85 71 37 15 89 79 41 71 73 19 85 15 89 55 57 35 29 83 69 71 81 71 89 87 85 67 89 15 77 83 93 27 73 55 89 15 9 51 89 19 69 35 53 91 37 91 89 31 53 51 77 71 89 19 89 99 81 91 89 19 97 27 73 71 69 99 73 15 77 83 65 19 5 84 86 88 14 52 86 96 38 68 34 92 86 88 86 12 50 96 50 40 50 52 90 84 86 48 86 12 66 48 66 48 50 84 58 80 86 96 70 92 18 12 90 48 86 48 86 76 86 84 86 12 70 100 70 12 38 12 38 12 54 32 86 32 86 12 70 16 90 68 74 76 2 68 70 56 58 32 70 12 90 68 98 40 90 96 70 40 66 60 70 60 70 96 54 76 70 8 54 32 54 32 54 84 54 8 90 20 54 92 54 60 58 92 54 28 18 32 78 92 90 80 90 96 54 88 54 60 74 64 90 40 38 100 58 56 54 44 74 92 38 76 54 64 38 92 2 80 38 96 90 28 38 96 38 80 50 80 50 68 2 96 70 96 38 96 2 96 78 76 10 96 38 96 90 96 54 44 98 96 6 96 38 96 70 96 94 80 10 96 94 80 98 80 98 44 78 96 98 80 42 80 98 80 86 80 86 64 66 100 46 80 18 80 58 96 94 80 6 80 42 100 22 64 94 44 54 96 98 96 98 32 94 96 62 64 98 44 82 28 66 64 6 28 58 100 58 28 74 28 98 96 62 64 82 28 62 28 26 80 58 64 82 100 34 64 86 44 94 28 78 28 62 28 98 88 78 80 25 3 97 39 93 99 41 3 41 95 21 43 77 79 77 83 93 71 93 39 57 99 97 79 93 75 93 47 93 95 77 75 81 83 93 91 93 95 93 99 93 83 41 59 77 67 93 99 41 47 41 27 93 99 41 91 41 95 77 47 41 83 41 87 77 79 41 79 25 27 25 47 93 99 57 83 57 47 41 99 25 87 25 67 77 91 97 99 41 99 77 51 45 79 25 63 97 99 81 23 25 83 25 95 93 59 41 99 61 47 57 99 25 35 65 43 85 99 61 83 9 99 29 19 45 99 81 83 41 47 97 47 65 83 81 67 81 83 9 83 57 67 5 55 25 83 9 99 97 31 97 67 65 67 45 31 53 67 61 35 93 79 1 67 41 67 81 67 41 51 9 67 61 83 21 67 45 67 45 15 17 51 25 51 69 71 57 15 49 99 41 27 85 63 77 63 25 91 37 55 89 51 69 83 13 63 65 67 89 91 73 87 89 91 69 63 45 87 85 67 89 71 65 19 65 71 17 99 29 51 73 51 73 71 5 87 37 31 73 35 89 71 61 35 97 87 13 51 89 99 61 71 73 79 73 35 73 95 73 71 77 87 81 15 65 35 33 71 85 91 89 35 73 51 33 35 85 68 78 84 86 52 78 84 50 88 42 60 38 68 50 12 10 72 86 84 26 68 66 64 86 48 66 44 86 84 70 64 70 16 94 48 94 48 50 48 86 48 86 68 70 12 86 92 86 84 70 12 70 88 70 12 38 12 86 56 50 48 70 84 86 84 42 92 86 88 86 28 86 48 70 12 34 12 78 16 86 48 70 48 86 48 70 68 70 48 98 96 74 88 82 32 70 92 54 48 90 80 42 68 70 96 94 92 74 100 90 48 54 60 90 96 26 100 38 96 54 84 54 44 74 96 90 92 50 64 70 60 98 76 54 16 74 84 34 96 18 84 38 52 90 44 74 60 38 96 94 96 74 76 38 100 74 96 54 96 38 60 2 76 2 96 22 96 38 96 82 44 94 96 74 96 78 80 58 96 70 60 74 96 90 96 78 80 62 80 90 80 66 80 26 80 94 96 74 80 2 64 62 80 94 96 42 80 58 80 90 80 22 80 78 80 62 80 38 28 78 100 94 80 82 28 62 80 42 8 42 100 82 28 50 64 78 64 10 64 42 64 46 92 86 28 22 28 78 96 22 64 26 80 82 100 62 28 82 28 42 44 86 100 78 28 62 28 46 100 46 28 94 8 26 8 26 28 57 75 77 79 93 99 93 47 93 95 93 91 93 99 93 83 93 99 93 83 93 83 93 99 93 75 93 3 93 63 93 95 77 43 93 95 93 79 41 91 93 63 93 95 93 79 57 63 77 99 57 99 77 63 93 63 93 95 41 95 93 95 57 11 77 95 77 63 41 83 25 79 77 83 77 99 41 27 25 99 61 51 41 99 65 11 21 99 61 95 25 83 25 55 25 83 25 95 9 99 61 95 77 67 25 83 57 47 25 99 25 67 73 83 93 83 77 83 57 99 93 83 25 79 45 99 9 99 97 67 57 67 9 51 21 83 61 83 77 99 65 31 9 83 81 67 57 83 33 51 81 67 45 67 81 63 89 67 57 67 21 67 93 91 93 87 49 67 45 67 81 67 29 51 97 51 73 51 69 67 89 87 53 19 77 51 89 51 89 51 33 67 89 15 89 51 65 51 73 83 89 51 85 47 89 51 73 51 73 87 89 67 73 71 53 15 65 35 33 79 57 31 89 55 97 35 17 71 93 67 61 67 17 87 77 35 73 55 89 87 25 67 73 71 49 27 89 19 53 19 73 71 53 19 9 19 73 71 73 35 81 67 49 51 73 71 53 11 77 59 37 87 37 95 65 47 73 84 86 96 70 92 70 92 70 4 90 48 94 84 66 84 50 52 58 48 86 48 66 32 94 44 22 48 86 52 98 76 66 88 98 84 66 84 66 84 66 12 86 12 14 48 70 12 54 12 86 12 70 24 54 84 70 36 14 48 70 40 86 48 54 76 70 84 70 100 42 12 70 44 98 40 70 68 86 36 54 80 38 72 98 96 94 48 34 12 54 40 86 32 90 72 90 96 54 96 54 76 54 96 54 80 90 92 94 92 90 88 54 92 70 96 54 56 34 80 54 96 90 48 74 76 82 24 38 84 74 88 70 8 74 96 90 80 90 68 38 76 54 96 54 76 38 96 94 100 98 96 38 96 62 88 38 100 74 64 54 92 6 96 2 60 22 96 22 96 38 96 74 96 18 80 90 96 38 96 42 80 18 80 18 76 78 64 94 80 6 96 6 96 22 80 42 80 38 80 10 80 22 80 54 80 42 44 58 80 2 44 42 80 58 76 38 100 58 96 42 64 62 80 66 44 22 60 66 64 78 100 26 64 46 64 90 44 22 28 50 28 82 100 82 64 6 100 86 64 14 100 94 64 22 100 94 84 26 64 10 100 6 64 82 28 62 28 98 96 98 64 94 100 10 64 42 96 93 95 77 19 45 95 5 99 89 95 57 39 77 95 97 83 93 83 41 43 41 79 93 31 57 99 57 43 93 99 41 39 93 3 93 83 29 3 93 99 93 99 77 55 77 99 77 43 57 87 41 95 57 83 93 91 57 63 77 79 1 95 77 95 61 99 93 99 41 99 77 3 77 27 77 91 61 91 77 27 61 47 97 47 57 99 93 15 61 47 97 71 25 99 81 23 25 63 85 63 85 99 61 99 61 91 77 99 65 99 41 67 61 83 41 83 61 99 65 67 77 83 61 31 9 83 9 79 97 31 9 83 93 95 9 15 9 99 97 83 25 75 81 71 89 83 61 67 89 99 37 67 97 87 45 71 29 79 81 67 65 87 45 67 97 67 77 87 9 51 85 51 25 31 89 47 9 51 13 35 37 67 89 31 89 87 85 47 73 87 97 51 69 35 73 51 61 51 89 51 89 51 53 35 93 99 29 35 89 99 77 87 73 83 49 87 37 35 73 11 29 51 81 35 65 19 89 91 73 55 73 87 61 95 53 99 49 31 41 55 45 99 37 99 65 35 93 67 29 71 73 71 45 79 73 19 93 19 69 91 89 23 41 71 89 55 97 55 53 83 69 71 9 15 73 27 77 48 54 48 98 84 86 84 86 32 78 52 78 52 14 88 98 60 70 84 62 84 90 48 82 96 74 84 70 32 66 12 86 68 90 12 66 28 70 48 50 12 54 12 54 12 34 84 70 88 66 12 50 88 86 12 58 48 94 12 50 48 90 100 70 64 86 12 94 84 86 48 78 80 70 32 98 68 86 84 34 92 18 96 90 48 70 20 90 68 90 40 70 72 90 80 78 80 50 84 90 88 86 32 54 16 58 92 90 92 94 8 90 80 54 68 54 64 54 12 94 80 58 92 54 88 86 96 38 52 90 36 70 92 54 96 2 92 38 80 74 96 38 56 98 60 38 76 94 76 38 100 38 76 38 96 90 96 38 92 22 96 18 44 58 80 38 44 38 76 78 96 2 100 90 96 34 64 10 96 22 96 22 96 22 80 62 96 98 80 22 28 62 96 38 80 42 76 90 76 94 80 74 80 62 92 62 76 42 80 46 80 42 80 90 80 58 36 98 64 78 80 90 100 78 80 2 92 58 64 54 80 98 64 46 64 94 64 98 100 86 100 62 64 50 28 78 100 6 28 94 96 58 100 90 68 82 64 98 64 26 56 38 64 70 28 62 60 26 64 46 100 58 64 62 28 74 76 93 63 85 87 57 95 93 23 93 99 93 99 93 47 81 79 93 95 93 67 21 11 93 55 93 95 93 83 93 87 65 99 93 91 93 79 93 47 93 83 77 75 93 83 57 95 93 99 77 39 57 95 81 99 41 95 57 95 77 63 77 99 21 67 81 79 77 15 77 79 77 99 93 27 85 31 85 79 93 99 25 71 77 99 93 99 77 43 57 95 25 99 25 99 25 83 25 63 77 99 77 99 77 71 25 95 77 83 97 67 45 99 61 67 25 83 97 99 77 79 21 83 25 79 45 83 9 87 57 83 93 59 9 67 9 47 25 67 25 67 25 31 89 83 93 31 29 67 81 83 13 11 97 67 81 67 85 99 81 67 73 51 81 67 89 51 37 67 65 67 93 87 97 87 85 67 9 87 73 51 93 63 9 67 9 51 77 51 53 71 69 63 77 35 45 71 65 51 77 15 9 51 89 51 65 51 37 91 93 51 25 35 41 99 69 55 77 63 33 31 73 35 85 35 89 35 81 91 73 51 73 67 13 35 73 35 57 11 49 19 77 35 37 55 89 95 73 67 73 99 85 19 77 19 73 95 73 67 65 67 89 55 89 99 85 71 97 19 45 71 81 71 73 11 53 87 73 32 50 84 50 52 26 84 98 48 82 92 2 48 30 68 66 48 78 80 74 84 86 68 34 84 42 96 86 84 90 12 86 48 70 84 58 32 62 68 50 20 66 12 90 48 98 84 70 48 50 12 74 12 90 96 78 12 6 12 94 48 98 12 82 48 54 12 74 84 70 64 98 48 66 32 74 32 50 32 70 68 90 68 78 92 70 32 90 76 86 44 90 60 90 32 70 32 90 8 70 88 74 76 50 72 90 68 54 32 46 88 90 80 90 76 94 96 90 36 70 88 90 96 54 92 54 32 58 80 86 28 66 96 38 24 90 88 38 76 70 44 42 76 74 24 74 100 78 60 94 96 98 96 38 96 38 96 74 96 38 96 38 96 22 80 22 80 38 28 86 80 6 60 70 96 94 96 70 96 58 100 38 96 62 100 6 52 90 100 18 96 6 80 90 96 26 80 90 80 42 80 70 80 74 64 62 80 6 64 6 80 98 44 62 96 38 80 26 64 82 80 62 64 82 80 70 64 78 60 74 64 22 64 62 28 6 100 42 100 10 64 58 64 46 64 38 64 82 64 10 28 94 64 58 92 58 52 58 100 74 96 6 100 82 100 10 60 90 64 6 48 10 60 10 28 50 100 93 43 77 95 57 75 5 79 21 83 97 63 93 79 77 47 61 67 69 83 93 95 21 79 93 95 97 83 93 3 93 39 93 39 93 75 93 23 9 99 93 43 93 63 77 63 93 67 93 83 41 3 93 99 41 99 77 63 77 83 77 67 77 95 41 83 77 75 45 95 81 27 41 15 97 99 77 79 61 87 97 99 57 63 97 31 61 83 57 83 25 99 97 79 25 83 5 47 25 83 25 55 77 91 97 83 61 99 61 91 97 83 5 99 65 83 9 83 97 79 21 83 21 83 45 99 49 87 65 99 73 67 45 83 41 67 69 83 89 63 45 67 49 83 61 83 65 47 69 99 9 47 81 47 9 67 53 31 81 43 49 67 69 51 49 71 65 51 89 87 9 67 37 87 73 83 17 51 97 87 73 51 5 83 41 87 45 67 81 51 49 51 57 51 61 51 49 51 85 87 85 51 97 51 9 51 69 87 73 67 81 71 73 35 89 87 89 15 73 51 29 87 33 71 65 35 97 67 73 79 73 71 25 35 57 67 73 63 33 35 73 51 61 79 45 19 97 19 21 71 73 71 65 55 49 87 73 67 29 35 69 55 73 55 29 19 65 91 73 71 49 51 65 43 73 91 57 100 18 60 66 32 70 48 30 84 94 100 86 92 94 84 46 32 34 68 58 48 86 12 86 84 66 64 50 80 70 64 78 72 98 68 86 88 58 48 86 32 14 48 86 80 50 12 90 84 74 76 70 12 90 56 14 84 90 48 34 32 70 12 90 48 90 48 70 48 2 100 70 40 70 48 90 52 70 48 90 48 90 72 90 48 34 52 90 76 98 84 90 72 90 92 74 96 54 16 90 72 90 100 90 32 2 72 90 84 90 12 54 44 58 88 90 32 90 72 38 96 54 96 90 96 74 76 90 76 54 92 90 76 46 96 74 84 74 16 38 52 38 96 54 68 38 96 22 72 74 96 98 96 22 76 58 96 38 96 74 92 38 64 54 96 38 96 22 96 58 80 38 96 54 96 22 80 38 76 90 80 94 64 58 100 90 76 94 96 54 80 58 80 78 100 94 80 98 44 22 80 58 44 94 80 62 64 38 100 70 80 26 68 62 100 26 64 98 92 94 8 38 52 54 80 6 80 82 28 14 100 46 100 74 64 98 64 82 64 94 28 38 64 42 64 62 64 46 64 26 92 22 64 78 64 62 64 74 64 58 28 82 80 6 64 6 64 42 28 78 76 98 64 58 80 78 100 93 87 57 79 93 39 77 95 97 63 93 7 25 75 97 99 57 95 97 95 93 83 77 27 57 99 93 99 93 99 93 39 77 79 93 95 93 47 93 75 25 47 77 3 65 79 93 83 77 79 5 95 77 99 77 27 77 75 77 3 77 39 77 67 77 59 97 63 21 7 77 39 61 87 41 23 25 99 77 59 41 27 77 87 25 99 25 99 97 99 77 95 41 63 61 83 61 63 81 83 25 11 25 99 81 63 21 55 89 79 81 47 85 83 57 83 77 67 9 71 25 99 9 99 45 83 93 51 89 47 9 99 61 83 5 83 33 11 45 87 81 83 77 99 9 67 69 83 69 67 1 35 73 67 85 67 9 67 97 15 37 99 65 67 85 31 85 43 29 67 85 67 61 71 73 87 97 87 81 87 25 51 33 51 65 51 73 15 29 87 69 51 97 51 69 51 85 51 73 35 57 51 97 59 17 71 45 35 89 47 65 67 97 67 85 67 85 35 65 87 73 71 13 71 5 67 29 51 97 87 89 87 53 35 65 35 29 71 69 11 73 91 53 91 89 71 73 71 73 83 53 99 81 87 37 55 49 75 69 91 81 19 41 35 37 55 57 71 73 95 9 71 73 87 21 67 89 48 70 76 70 84 90 68 46 52 86 84 78 48 58 48 86 32 50 84 90 48 86 48 82 48 86 68 86 48 98 96 66 68 66 48 94 92 38 12 86 48 70 12 34 12 86 12 18 12 86 48 62 12 58 68 90 60 90 48 86 48 50 32 90 84 86 48 90 48 78 84 30 88 66 16 70 12 70 84 90 68 62 48 62 88 90 72 90 48 90 76 74 48 54 68 94 80 54 16 90 88 74 84 90 44 90 100 46 84 90 36 70 36 86 52 94 48 38 76 90 76 38 76 54 92 74 80 54 64 94 92 90 48 38 80 38 20 74 36 38 96 38 60 54 96 22 96 50 96 54 100 74 72 38 92 26 96 86 96 38 88 6 80 82 76 86 28 22 96 38 64 90 60 58 80 38 76 58 64 98 44 46 96 6 64 38 96 74 60 58 100 74 28 46 92 90 60 6 80 94 80 58 80 74 80 98 80 82 80 38 80 46 80 46 100 62 100 22 96 6 80 22 28 46 64 78 40 58 64 62 100 6 64 10 76 26 64 22 80 98 64 94 64 90 64 98 64 6 64 58 64 42 64 98 64 82 28 62 80 78 64 58 28 6 64 26 64 2 44 94 8 78 80 90 100 74 64 5 99 93 91 93 63 93 95 97 95 97 99 93 71 93 43 41 3 21 67 77 47 93 79 93 7 77 3 93 99 93 99 93 23 93 99 77 3 93 51 77 39 77 99 5 39 77 75 97 63 41 3 77 95 77 79 77 27 77 99 77 95 77 51 97 79 93 99 25 63 77 55 77 99 53 99 25 79 57 23 57 83 45 83 61 99 61 83 61 87 97 83 89 67 25 99 61 23 61 27 77 87 61 99 25 99 45 39 81 47 77 83 77 99 81 71 49 99 77 63 81 75 85 63 89 3 9 63 81 67 77 31 25 87 89 83 5 87 81 47 45 83 45 67 41 87 9 67 89 99 73 87 29 55 65 99 45 71 65 87 9 67 65 87 77 71 97 67 29 67 49 35 37 51 57 67 89 87 73 67 77 87 85 15 85 51 81 51 61 51 45 51 89 51 33 87 49 51 9 51 73 51 41 51 81 19 37 87 65 67 93 35 73 19 89 35 85 35 53 19 33 35 81 87 73 83 29 51 61 19 45 87 85 87 65 55 73 83 97 71 49 91 65 35 33 55 73 19 49 15 89 27 89 63 37 19 89 19 77 55 33 91 73 71 61 83 65 51 85 55 77 87 89 35 17 19 77 84 98 44 86 84 50 84 70 84 50 84 70 80 58 84 98 48 18 84 26 84 6 68 70 48 98 12 70 84 50 48 70 92 66 48 70 48 66 48 78 68 86 48 70 48 82 48 86 48 90 48 86 48 86 56 86 32 90 48 86 16 38 24 86 48 70 84 94 48 94 12 90 16 70 68 90 56 50 12 54 48 74 8 70 32 90 84 70 12 90 92 78 36 78 76 54 68 74 76 10 16 54 32 90 24 90 84 54 80 90 60 38 64 90 88 90 52 90 80 90 60 54 76 90 36 70 96 6 80 74 64 2 16 54 92 70 80 94 52 38 56 22 52 58 76 38 100 38 68 74 76 38 96 82 96 2 100 38 80 38 60 58 96 22 84 22 100 22 72 22 40 38 80 22 68 74 52 38 76 22 36 94 68 94 96 94 44 94 96 78 80 62 80 74 80 58 100 42 28 82 80 74 64 58 96 50 100 94 64 78 80 82 100 86 100 94 80 26 80 74 64 42 60 10 64 6 80 62 64 58 64 22 100 22 64 94 64 86 64 82 64 78 64 62 100 78 64 78 100 46 64 62 60 42 96 58 64 6 28 82 96 62 100 26 100 78 44 78 60 22 60 82 64 22 80 74 80 93 63 93 95 93 63 85 75 97 95 21 39 93 99 93 71 97 95 93 99 41 79 93 7 93 75 93 79 93 3 93 3 81 95 93 63 41 11 77 39 93 3 93 39 85 79 97 99 77 79 97 83 77 47 77 31 77 75 77 63 81 43 77 99 61 39 77 23 53 23 25 63 77 99 61 35 93 83 81 67 61 43 25 3 61 99 41 67 77 47 81 19 73 23 77 43 25 99 25 83 61 63 9 51 93 51 57 87 77 83 25 39 61 79 9 55 93 43 73 63 9 35 93 99 97 95 9 87 81 87 61 71 97 83 25 51 61 83 65 83 9 71 97 83 9 67 29 67 97 23 81 87 65 67 37 83 61 83 97 71 13 67 9 67 65 51 77 51 65 87 89 71 45 51 29 67 61 71 97 99 45 51 13 51 97 87 85 87 73 35 73 95 73 51 57 87 81 51 33 15 49 51 97 51 49 67 41 35 53 83 69 35 73 87 85 91 17 35 89 35 69 19 97 71 89 19 61 51 85 71 97 35 89 19 77 19 73 43 69 51 33 99 89 55 61 55 13 39 45 35 81 35 73 87 73 71 85 51 25 91 29 35 41 35 93 99 61 91 73 67 89 19 61 87 9 91 81 84 38 76 58 84 82 84 54 68 86 48 90 32 90 84 98 48 74 16 62 48 70 48 94 68 70 68 38 48 86 48 58 48 90 48 70 48 90 48 22 48 86 84 90 12 18 72 86 84 54 48 90 92 14 88 90 52 90 32 86 100 74 68 86 84 90 84 78 92 66 16 70 88 74 88 90 100 70 96 6 52 90 80 50 68 70 52 90 96 90 32 90 88 98 64 70 44 90 84 38 92 90 16 74 52 38 8 86 4 90 88 90 96 70 80 90 52 90 96 74 60 22 80 70 80 54 28 70 28 38 96 38 80 38 32 38 96 74 80 54 36 90 96 74 92 58 32 54 64 30 100 38 28 38 44 58 60 58 64 2 96 22 96 58 28 38 100 50 88 38 28 94 60 54 76 22 76 22 44 22 28 6 28 94 72 74 80 70 60 98 80 6 96 58 80 58 80 22 100 22 96 6 80 22 64 46 96 18 80 98 64 58 80 6 64 54 80 42 96 94 64 74 64 98 64 42 100 6 80 58 64 10 64 10 100 78 64 62 64 94 64 74 96 62 28 58 80 94 64 58 64 10 64 42 64 54 80 46 100 62 84 2 100 26 64 98 64 26 96 50 28 38 40 82 64 74 100 93 95 61 79 93 95 93 95 93 39 93 75 57 7 33 75 93 95 93 75 93 39 93 99 93 99 97 87 97 75 93 95 5 83 93 43 93 3 93 99 97 83 93 59 77 75 93 87 93 83 77 79 77 19 97 71 93 99 41 75 77 99 77 39 77 83 77 95 41 87 93 99 93 3 77 83 77 27 77 43 61 47 25 99 25 3 97 99 61 79 61 79 61 83 97 39 25 79 97 83 25 31 97 83 45 87 61 83 61 7 81 99 85 63 45 99 81 63 9 67 9 99 45 83 97 71 9 99 9 3 13 31 61 87 97 67 69 87 9 7 81 51 45 51 73 79 53 55 61 87 89 31 77 87 97 99 61 87 29 79 73 51 61 67 53 87 9 51 45 87 85 51 65 87 9 31 97 59 85 71 97 51 37 43 65 51 97 67 45 87 29 71 65 87 77 47 41 87 97 51 97 83 25 19 13 35 45 35 73 51 65 55 9 35 97 15 37 51 89 35 73 91 73 35 65 87 5 31 9 87 17 15 77 51 89 51 93 91 81 91 37 99 61 3 49 87 85 19 93 51 73 71 97 55 69 19 13 87 85 35 85 95 65 55 61 91 45 55 73 87 77 71 53 87 89 35 97 84 70 12 38 48 78 84 50 48 54 84 26 88 70 12 86 84 66 84 18 48 70 100 90 48 70 52 66 84 50 68 94 92 14 48 82 48 74 12 74 48 86 12 22 52 34 48 70 12 50 48 98 88 90 32 86 48 86 48 70 16 94 32 78 92 90 64 54 84 18 32 90 32 70 88 90 36 90 12 58 84 54 68 90 12 70 80 74 80 70 84 54 60 90 60 90 88 90 96 10 72 90 92 62 16 90 68 90 16 90 48 90 32 90 96 90 96 90 12 90 32 62 96 90 64 6 88 54 96 74 32 98 80 90 68 74 100 34 96 54 80 86 96 74 100 38 76 22 88 38 100 38 68 74 44 58 92 54 60 90 96 90 96 74 36 74 96 22 76 58 80 22 44 58 96 90 80 22 96 22 80 54 96 58 60 6 44 22 32 6 44 62 100 50 80 42 80 42 100 18 80 94 40 74 100 58 76 90 100 18 100 6 28 74 96 10 64 6 96 74 64 26 80 58 64 26 80 98 64 86 100 90 100 98 64 46 64 78 64 78 100 62 64 82 100 62 100 6 100 98 100 94 100 62 68 46 64 98 28 46 100 70 96 62 80 78 96 34 28 62 80 58 64 98 80 46 60 41 27 97 51 45 51 93 95 97 39 81 59 57 59 93 39 77 87 93 95 93 71 93 23 21 75 97 79 61 59 57 39 93 75 97 99 77 63 61 39 93 3 61 87 93 99 77 75 89 79 77 79 93 75 61 39 45 51 97 83 77 47 77 95 77 67 77 47 77 87 77 99 97 87 61 43 97 63 61 51 61 83 25 63 97 75 97 79 77 83 77 99 5 83 25 87 25 63 29 31 97 47 85 99 93 83 25 55 61 99 65 83 45 27 45 63 77 99 45 31 65 35 9 59 9 99 9 99 89 99 9 67 97 83 9 67 81 99 25 35 97 67 57 75 9 67 9 91 81 71 9 87 81 79 81 83 89 67 97 71 41 51 9 55 61 51 45 83 97 63 89 87 41 35 97 87 81 87 21 95 49 83 13 67 97 51 77 99 89 87 13 51 77 51 89 51 41 51 97 35 81 67 65 71 41 51 89 35 33 51 73 15 93 51 45 71 89 35 73 35 37 35 65 91 85 87 81 35 17 55 37 87 73 71 33 35 73 35 93 87 13 71 97 35 53 55 89 87 13 35 9 35 65 55 93 83 73 71 33 67 61 91 65 63 81 15 45 31 73 19 65 63 17 55 69 19 97 84 86 48 58 84 86 84 86 48 78 48 98 84 34 36 22 48 86 84 86 48 50 12 50 48 90 48 86 68 42 84 14 48 90 48 98 84 90 84 86 48 54 12 86 84 58 4 50 48 50 48 22 48 70 52 90 48 86 48 90 12 74 100 70 84 54 84 70 68 90 32 90 52 90 76 74 84 98 48 90 44 50 96 90 32 54 32 90 48 90 32 90 16 90 68 54 96 66 32 90 84 70 16 54 80 90 84 94 16 90 64 90 84 90 56 54 32 90 52 90 52 90 72 54 72 70 60 74 80 74 96 38 96 18 76 78 92 38 60 74 80 94 80 74 80 58 92 22 52 86 60 38 88 90 96 94 44 38 100 74 80 38 80 58 80 62 100 58 28 22 72 50 24 22 8 22 80 38 96 38 96 74 80 58 76 42 80 90 80 94 48 34 80 82 28 34 80 74 80 58 28 42 60 82 44 94 100 58 80 62 80 98 80 42 80 22 100 38 80 6 80 18 100 6 100 62 100 82 80 58 64 2 64 46 100 42 28 74 100 98 64 98 80 74 100 98 64 78 100 62 100 82 48 82 100 82 80 82 100 82 100 58 80 74 64 78 28 38 64 6 100 90 100 82 8 94 28 77 3 57 99 93 63 57 59 57 87 69 79 93 51 93 95 61 99 77 23 93 99 93 87 41 99 93 87 93 39 57 99 77 55 77 75 93 95 97 63 77 3 97 83 77 27 77 75 57 75 81 79 77 47 77 95 77 99 77 3 77 99 77 3 97 87 57 99 81 59 41 99 77 35 81 87 61 83 77 99 61 99 85 83 97 7 61 63 77 55 41 11 97 67 57 27 45 99 25 83 85 83 61 83 49 71 81 83 45 67 45 83 77 83 81 7 9 99 9 83 25 87 97 83 45 95 9 99 9 31 45 67 25 63 93 83 9 83 29 83 9 67 77 47 97 27 77 87 41 71 29 7 49 67 61 63 93 51 77 87 69 87 73 23 13 87 69 67 81 51 77 87 73 87 77 71 49 71 97 87 93 55 9 71 65 71 45 87 13 71 37 51 53 51 77 71 77 55 45 87 49 51 33 15 13 51 73 51 9 35 61 91 73 35 73 35 61 87 73 51 89 83 73 51 77 19 33 35 29 87 81 87 97 35 49 23 25 67 81 47 73 55 73 55 85 35 89 67 45 19 89 19 49 35 85 99 57 19 93 87 77 19 77 31 85 71 81 71 73 55 49 11 73 71 49 19 65 52 42 20 82 84 94 8 66 24 86 80 86 48 86 84 98 96 58 40 86 48 70 68 70 84 42 32 86 48 14 84 70 84 34 48 86 84 66 100 66 32 26 48 98 84 2 48 54 48 90 96 74 48 70 12 86 68 54 52 74 12 70 92 74 92 54 32 70 8 86 40 38 16 82 76 54 52 90 84 74 56 70 96 70 4 90 12 90 88 90 36 14 92 90 16 90 96 90 96 58 92 54 84 90 16 90 96 90 84 90 68 98 12 38 80 90 76 58 72 58 52 90 60 90 60 90 48 38 96 74 40 74 60 90 52 78 80 74 60 74 52 78 80 74 92 58 96 74 60 58 64 78 12 38 96 94 76 74 96 22 44 58 96 54 76 94 72 10 96 38 60 90 80 22 76 58 88 38 60 58 64 94 100 42 96 90 96 22 80 82 64 6 64 6 68 94 92 90 96 70 88 6 100 62 96 58 44 78 100 94 80 6 76 78 80 82 56 30 100 58 96 94 100 78 64 94 100 22 100 62 64 22 64 98 64 94 80 70 100 98 100 10 64 42 64 58 80 78 60 42 28 58 64 98 80 98 64 82 64 66 100 78 84 58 28 78 64 98 40 38 64 18 20 58 88 42 80 93 51 93 75 77 63 93 75 93 63 21 39 81 99 93 95 25 99 21 3 97 79 41 7 93 39 93 23 93 39 77 35 93 99 93 23 93 75 77 83 93 23 93 59 41 59 45 39 77 67 93 99 77 39 77 63 77 51 41 3 93 39 77 59 61 99 77 99 77 83 77 99 61 99 45 99 61 83 97 11 61 47 61 63 97 39 61 83 93 83 77 51 61 83 61 67 41 91 61 63 25 51 77 83 97 11 93 83 25 67 97 83 97 95 45 83 77 83 9 19 97 67 45 31 81 95 9 11 9 67 9 63 97 67 97 59 81 87 65 99 13 71 21 51 49 67 13 71 9 87 41 83 29 67 29 71 77 51 41 91 45 27 29 75 65 51 49 99 73 87 77 55 89 87 45 23 89 71 77 99 93 51 89 51 89 31 33 87 45 87 89 87 93 55 61 71 93 35 41 87 77 51 29 35 13 71 89 35 89 55 89 71 37 35 57 31 93 51 73 35 89 35 77 35 97 35 73 55 89 35 69 35 57 19 89 31 37 87 93 19 97 19 97 67 29 35 69 19 45 35 89 51 65 19 73 91 49 91 45 91 97 63 17 95 69 35 73 67 21 87 89 91 21 51 73 71 85 48 46 24 66 12 58 16 10 72 66 48 66 24 86 68 90 68 86 84 86 72 98 84 62 84 2 48 66 48 34 48 66 68 90 84 70 48 90 48 86 48 70 48 70 68 86 48 98 68 74 48 54 48 90 48 50 84 90 52 90 48 86 68 90 48 50 32 42 32 94 52 86 48 70 88 90 36 46 12 90 32 90 32 90 72 54 76 98 96 90 60 54 72 90 96 90 88 90 48 50 100 90 16 90 84 54 48 94 20 90 32 74 72 90 32 90 96 90 96 74 40 74 88 62 64 74 40 26 52 86 24 70 60 86 76 2 96 38 36 6 96 38 36 38 96 90 76 74 44 74 96 82 96 90 60 70 80 58 96 18 80 22 4 94 80 22 96 74 24 42 80 58 52 74 80 58 96 22 96 42 96 94 80 22 80 22 28 22 96 58 80 90 96 74 100 34 96 42 96 78 76 98 80 70 52 78 100 58 40 82 100 74 80 62 100 58 96 62 80 98 100 98 100 42 64 10 36 26 48 42 44 42 96 10 100 94 100 94 96 42 100 78 100 46 100 98 64 46 100 98 64 78 100 86 100 38 64 46 44 6 64 78 28 82 100 94 64 22 64 46 64 94 32 82 100 82 100 57 75 77 3 77 79 93 39 93 99 93 59 5 83 93 39 77 75 93 87 77 67 81 31 93 75 93 79 77 99 93 59 97 39 97 99 93 99 93 87 97 63 93 39 41 99 97 35 77 3 41 43 77 3 61 27 77 67 77 95 77 79 77 95 77 31 77 39 97 95 97 99 77 79 77 71 97 83 25 83 97 23 25 39 93 95 65 23 61 71 93 99 61 95 97 79 45 79 61 95 97 83 81 31 73 79 61 83 97 87 61 63 9 99 65 83 97 83 65 99 77 79 81 39 9 59 45 23 49 79 77 83 9 99 61 71 9 71 81 59 9 83 61 67 13 83 29 27 69 87 9 67 65 67 9 71 9 67 57 87 65 87 49 67 45 55 9 15 65 67 93 99 9 87 97 87 65 91 97 35 13 87 69 51 69 87 65 83 57 67 77 87 33 67 37 51 85 71 61 87 97 71 9 71 49 51 97 35 13 67 65 91 85 35 73 35 17 35 73 35 89 35 73 35 89 35 53 71 85 91 73 19 69 11 69 35 85 51 49 87 73 35 61 19 73 87 97 19 89 95 45 71 33 19 45 87 73 87 65 71 41 59 61 99 69 67 53 91 69 35 69 71 89 35 65 71 77 84 86 88 94 84 74 88 38 84 50 48 70 68 90 52 54 68 14 84 70 84 70 84 54 84 86 52 50 84 86 48 90 84 94 48 66 48 54 48 86 48 70 48 22 100 86 76 86 84 62 68 50 12 86 48 98 68 18 48 54 68 86 32 90 56 46 48 74 68 90 12 70 68 90 44 38 32 70 48 86 16 90 12 54 32 90 96 90 32 90 60 90 48 90 8 98 92 90 36 90 52 90 68 90 88 90 84 90 28 70 88 90 80 74 32 90 12 50 52 74 92 90 48 90 16 62 68 90 88 74 96 74 96 82 88 38 80 74 88 74 72 74 64 2 52 90 80 74 80 38 84 54 68 54 76 94 92 58 100 58 96 58 96 22 96 94 68 22 64 58 100 94 68 22 96 78 96 86 100 90 64 22 4 42 96 78 32 46 84 58 80 6 100 94 60 78 80 6 80 6 96 42 100 6 100 6 100 70 100 6 44 50 100 62 28 58 64 6 100 6 100 42 64 50 64 82 100 62 100 98 100 46 100 6 80 22 64 58 64 98 60 74 64 58 44 22 28 26 96 38 64 6 28 6 96 62 100 10 64 74 64 26 100 98 100 82 24 78 100 14 100 78 84 42 28 26 100 93 83 93 95 57 39 57 39 57 95 9 79 77 43 97 23 77 39 93 99 69 99 93 59 57 79 93 3 93 39 57 3 93 75 81 75 77 47 77 95 77 67 93 91 77 3 49 3 93 79 77 79 65 83 77 75 97 83 41 79 77 51 93 23 77 75 77 83 41 99 81 3 77 79 77 75 41 95 97 23 61 23 61 55 97 55 97 3 61 63 61 99 45 99 61 43 61 95 61 7 81 67 45 27 25 95 49 59 97 51 81 39 9 95 61 59 97 99 81 7 9 51 9 23 25 83 9 59 81 23 41 91 45 67 45 67 65 67 41 59 29 99 9 67 45 99 25 99 45 43 45 87 65 51 97 67 29 83 81 67 77 87 29 71 9 83 29 71 49 87 89 51 49 87 85 83 61 67 49 51 89 87 97 87 69 87 85 11 29 51 69 87 93 87 77 87 17 51 81 51 45 19 65 87 81 35 69 71 65 35 61 55 89 35 73 35 53 35 29 35 89 35 49 35 97 67 13 51 53 19 57 91 73 35 33 63 73 87 53 35 85 67 73 51 93 19 89 51 13 55 49 19 61 35 97 35 53 71 97 79 65 91 97 71 73 91 77 71 77 35 49 35 73 71 73 19 45 60 90 68 78 84 90 84 90 48 74 68 66 68 66 84 62 40 66 84 86 32 62 48 98 84 18 48 98 52 54 96 34 84 86 48 34 52 74 84 58 84 70 12 86 48 74 12 86 68 98 36 90 48 70 68 86 72 18 48 74 12 66 32 86 48 90 48 94 48 94 84 18 84 30 96 90 32 90 84 70 32 94 92 82 68 74 32 22 12 90 68 90 16 90 68 90 72 90 96 90 52 54 80 86 68 90 68 90 80 90 92 70 56 90 56 74 84 58 96 90 92 90 60 34 56 94 72 94 96 74 80 22 16 74 76 6 44 74 96 74 96 66 80 74 36 70 60 74 96 62 56 94 88 90 80 38 100 94 96 74 64 74 100 94 100 78 80 74 80 2 76 22 96 22 100 94 96 22 76 22 52 78 80 58 44 22 72 94 24 50 100 22 64 98 100 78 60 98 20 6 80 6 64 6 100 74 100 6 80 6 64 90 100 62 100 26 64 98 64 26 100 62 100 58 100 18 100 78 100 54 64 94 100 46 64 78 64 58 100 10 100 74 64 62 100 82 64 26 64 58 100 78 60 62 100 22 64 62 96 98 64 58 64 10 68 54 100 82 28 62 64 2 64 26 64 34 88 81 63 93 91 97 39 57 11 77 59 41 71 85 59 93 99 93 67 41 87 93 23 77 79 93 99 77 3 77 79 93 83 93 59 97 39 5 79 81 39 77 83 93 95 93 3 77 3 93 39 77 95 61 95 93 51 77 63 97 67 93 99 97 99 61 99 81 87 97 3 77 99 61 67 97 75 97 95 61 83 65 43 61 3 61 67 61 99 61 99 61 83 45 95 61 43 97 99 97 15 61 91 61 59 45 3 45 83 61 59 45 43 29 83 45 3 97 87 9 87 97 35 29 23 61 99 61 35 9 67 81 63 45 87 13 55 41 67 45 51 81 47 97 67 29 87 73 99 57 15 45 51 45 67 65 99 81 87 81 71 33 87 97 87 97 87 41 87 61 67 65 67 81 87 9 87 13 87 25 87 81 87 73 71 65 87 77 87 57 87 53 51 9 71 13 35 61 23 85 51 65 83 13 35 81 35 61 35 97 87 53 71 25 35 25 35 77 87 89 71 65 71 53 7 89 79 89 35 25 83 29 35 89 35 97 19 49 35 69 19 89 35 97 71 49 71 93 35 97 87 97 55 85 55 89 19 21 71 89 91 89 19 45 91 65 55 37 55 89 55 5 55 49 71 57 47 57 32 70 80 86 88 86 48 50 48 50 84 54 12 86 48 66 68 86 80 98 84 82 32 86 84 90 32 66 48 66 72 70 68 94 84 66 48 54 48 94 52 98 84 66 48 66 84 86 92 26 32 78 48 90 32 86 76 78 48 70 48 98 48 86 12 70 32 70 32 58 68 90 88 90 52 86 64 62 84 70 24 90 52 50 84 18 32 38 28 90 80 18 32 54 88 54 12 90 16 90 16 94 48 90 84 90 32 70 68 26 64 74 52 54 68 90 52 62 68 90 16 74 80 74 60 74 76 74 48 74 96 22 36 54 96 74 76 74 100 74 72 74 76 74 80 54 68 94 80 98 96 54 80 70 96 54 96 58 96 74 76 22 64 58 64 22 36 78 96 22 84 22 96 86 80 54 88 78 80 58 96 6 96 42 80 58 100 98 88 90 80 2 92 74 100 74 100 6 100 98 100 2 92 74 64 58 64 54 96 6 80 78 76 82 80 6 64 98 100 58 100 62 100 90 100 62 100 46 100 98 100 26 100 82 60 98 64 98 100 78 100 98 44 62 80 54 80 82 80 82 100 82 8 82 100 42 64 78 80 82 100 10 100 78 64 82 28 98 64 62 96 78 28 86 88 50 64 57 39 61 87 57 23 77 47 61 39 93 95 97 55 77 63 77 99 65 51 93 51 61 75 25 79 97 75 97 3 93 75 93 67 97 3 77 99 97 59 93 47 73 75 77 3 93 39 77 3 77 3 77 39 77 99 57 95 77 99 77 75 77 79 57 83 29 27 25 79 97 3 61 99 93 95 77 83 97 99 61 23 61 15 97 23 97 75 97 99 61 75 61 47 61 99 93 39 81 99 61 31 9 51 81 83 77 83 61 83 81 99 81 63 61 47 29 59 45 3 65 83 45 63 97 91 9 83 41 83 81 11 45 67 97 39 29 95 9 51 57 63 65 51 49 99 45 83 45 71 85 67 45 83 45 55 81 87 69 87 81 87 45 35 81 87 93 87 85 87 9 51 21 87 57 87 89 87 65 87 61 87 77 15 41 71 41 71 77 55 13 87 29 91 57 71 17 51 97 35 65 51 61 67 93 71 53 67 85 71 49 35 49 55 9 71 61 35 57 95 97 35 29 19 65 71 97 19 9 35 97 87 77 51 81 71 33 55 73 15 89 19 73 71 89 35 65 55 73 91 81 19 49 19 61 91 53 19 45 19 81 87 65 87 13 83 81 35 73 35 73 55 17 19 21 19 69 48 54 48 82 48 98 52 70 72 10 48 66 84 62 88 54 84 70 48 6 84 50 48 38 12 86 48 70 84 82 92 42 88 70 84 90 84 6 84 58 96 70 68 86 84 90 48 66 84 90 52 94 88 98 84 90 48 90 84 78 32 70 48 90 68 70 48 58 68 94 32 86 48 74 48 90 20 94 88 70 32 70 48 82 52 62 52 34 68 98 76 90 100 94 68 62 52 90 48 90 32 90 16 90 12 90 68 6 68 54 84 94 80 90 96 90 72 74 52 90 52 54 12 74 68 74 96 74 96 74 72 74 48 74 32 74 64 74 16 94 80 46 8 74 52 74 80 90 60 58 56 74 80 74 96 38 36 74 96 90 96 90 68 74 60 94 72 66 84 94 60 6 76 22 72 14 64 58 28 42 80 22 60 94 80 74 64 78 96 10 96 6 100 22 60 6 44 78 64 6 64 26 96 6 80 6 100 82 64 6 76 42 100 6 64 62 100 74 100 98 80 94 100 82 100 78 100 98 100 58 100 98 100 90 100 62 8 10 64 62 100 26 100 98 64 10 64 46 100 82 64 10 100 82 64 26 80 62 80 78 100 62 64 82 92 62 64 6 100 54 100 46 100 78 100 6 24 13 83 9 75 81 79 53 3 93 11 93 79 77 59 93 55 97 95 93 95 25 3 21 15 97 83 93 75 93 71 93 95 97 43 33 59 77 11 77 3 77 51 77 95 93 23 41 95 41 83 77 67 77 3 41 99 93 23 77 51 61 23 97 79 61 63 85 75 97 99 61 39 25 11 61 39 77 39 41 83 61 43 61 99 61 3 97 99 97 83 61 75 81 79 61 83 81 83 97 63 61 51 81 83 45 87 81 47 9 51 77 31 45 83 45 91 45 63 61 87 9 87 37 71 45 87 9 51 29 3 61 43 65 87 53 83 73 7 25 75 25 31 97 87 77 71 61 99 33 87 57 39 97 87 29 83 81 83 81 31 45 67 97 83 81 87 85 67 77 87 85 35 77 51 29 87 45 87 53 87 73 87 65 79 33 87 77 87 13 87 65 71 41 87 97 51 49 87 13 87 93 19 5 71 61 71 13 79 17 15 81 51 73 87 77 15 45 35 13 55 29 35 45 71 97 55 69 71 93 55 97 19 5 19 37 55 97 35 69 51 49 51 81 63 69 19 5 15 45 35 13 35 29 19 73 51 65 71 33 35 17 71 29 71 13 99 81 67 97 19 73 55 33 91 81 55 49 68 66 84 94 84 90 16 86 84 38 84 50 48 34 48 86 28 50 84 94 84 66 84 62 12 94 44 62 84 86 84 34 48 90 48 50 48 50 48 50 84 42 48 90 48 66 84 74 84 86 48 82 48 90 92 74 32 86 88 34 32 86 68 70 48 70 48 90 32 98 68 78 32 90 16 90 32 34 48 54 32 58 84 90 96 90 8 94 68 90 48 90 84 50 16 38 76 94 64 58 96 90 16 90 48 74 12 94 16 98 84 90 64 82 84 90 24 74 88 38 16 74 52 42 48 90 96 70 68 74 52 90 64 38 8 90 80 74 80 74 36 74 92 38 96 62 100 74 72 74 16 98 32 58 88 22 44 58 96 74 100 6 76 46 80 42 88 58 92 42 100 94 48 62 68 98 100 58 76 98 76 98 80 94 96 94 80 6 16 38 100 42 100 74 100 6 100 42 64 98 96 6 8 74 84 82 100 74 76 42 100 22 100 6 100 94 100 