1 95 41 83 97 95 57 95 1 99 93 99 25 95 1 95 1 99 1 71 41 95 77 79 77 95 77 79 57 95 1 95 1 63 1 67 81 95 41 99 49 95 81 27 93 95 1 11 57 95 89 95 1 95 61 95 81 95 21 83 49 75 45 79 21 11 41 63 93 83 21 95 69 43 1 79 93 79 1 63 81 63 21 99 53 31 29 99 93 63 93 83 41 99 21 95 21 79 37 95 53 99 41 67 65 31 81 67 97 11 53 87 37 67 73 51 37 63 89 63 37 99 85 67 9 59 53 47 53 67 53 99 89 91 37 51 89 95 49 31 69 99 85 15 89 31 41 99 89 99 73 51 89 47 89 31 37 63 89 87 9 83 65 67 81 51 89 95 53 79 29 95 53 55 73 67 53 95 89 99 37 35 89 19 69 67 45 76 54 68 54 32 66 60 62 88 66 92 34 44 66 48 86 56 66 40 38 92 66 52 66 100 18 84 58 96 82 64 66 68 14 24 86 76 14 76 74 40 86 92 10 88 86 52 2 96 14 84 58 92 38 32 14 76 18 92 50 68 34 92 14 96 86 28 14 92 70 92 86 76 54 68 66 92 90 40 82 92 14 84 58 92 66 76 94 64 26 40 94 92 78 40 50 76 34 40 14 96 58 24 26 68 70 76 18 92 70 76 30 40 98 40 58 76 34 48 38 96 70 40 90 96 34 60 78 92 98 44 86 76 86 40 46 24 78 72 74 76 86 80 54 40 90 72 90 60 34 60 42 88 50 64 54 92 82 80 26 52 70 80 34 92 94 60 18 64 58 100 22 96 94 28 14 76 6 44 46 96 62 96 62 80 82 76 1 95 77 99 77 3 1 31 93 79 1 75 1 95 1 63 1 99 1 95 1 19 93 95 57 95 93 95 5 63 1 63 57 99 93 95 21 95 73 27 25 95 1 95 57 83 21 79 1 99 5 99 81 95 9 27 93 79 49 95 93 79 77 31 85 95 93 99 1 79 89 79 93 63 49 63 97 95 53 27 37 99 57 99 61 95 49 99 77 27 49 83 37 79 89 51 21 83 89 27 41 47 93 27 57 79 13 3 73 27 61 79 93 87 53 47 89 83 21 95 77 71 21 31 93 79 53 63 89 87 89 35 89 87 89 63 73 27 97 15 61 83 49 67 53 99 53 83 53 47 73 3 73 27 53 63 81 83 73 95 89 11 89 83 61 87 37 87 37 71 85 63 73 71 37 11 89 79 77 83 33 55 97 31 73 99 73 8 86 72 66 56 66 64 50 32 50 52 54 76 66 32 86 92 86 68 66 84 66 92 50 64 34 8 50 52 86 44 54 76 94 68 50 92 50 92 70 48 82 28 50 80 14 80 50 32 70 92 66 80 90 92 90 56 14 60 86 96 70 92 14 92 70 92 34 68 14 92 74 92 70 60 74 92 38 64 62 92 78 92 70 92 66 92 82 92 14 68 74 92 18 92 70 76 46 92 34 76 70 92 94 76 50 96 62 80 86 96 70 8 82 76 58 92 14 96 74 76 14 40 86 76 10 92 50 24 58 100 18 96 70 84 18 64 54 60 90 92 86 76 90 8 78 32 18 24 50 24 82 8 66 92 62 100 98 24 90 48 34 84 94 44 58 76 70 96 98 28 94 96 54 28 70 4 46 76 34 100 94 76 74 64 62 60 41 83 5 95 21 95 97 7 33 95 21 91 1 95 57 95 21 95 57 95 77 95 85 99 57 79 57 95 93 95 21 95 57 63 21 79 57 79 57 95 21 79 21 95 81 95 33 79 93 99 57 95 21 39 1 99 73 47 69 31 5 63 77 71 57 79 53 59 93 95 77 79 41 55 37 79 33 79 89 79 57 63 1 79 41 27 25 87 29 79 17 87 29 27 5 67 77 83 85 11 89 27 53 63 73 95 85 67 81 11 53 63 89 79 53 27 89 95 53 99 93 79 93 75 53 63 53 63 37 11 61 95 45 63 53 35 37 11 93 99 73 47 93 31 53 35 73 31 97 19 77 47 89 87 53 51 89 67 89 47 73 99 25 27 89 95 13 55 17 99 97 83 37 67 37 87 89 47 73 95 97 67 73 63 73 67 77 32 70 92 66 28 66 68 66 36 82 60 50 96 66 40 62 100 66 60 86 64 66 40 66 8 50 76 86 92 38 84 66 44 50 40 86 88 50 56 70 76 66 40 66 92 74 96 66 4 14 84 14 76 58 76 14 76 66 56 66 96 58 80 70 16 14 76 74 8 50 92 66 92 14 92 50 92 14 76 86 76 50 92 74 60 66 92 14 80 98 92 94 92 70 92 70 96 30 40 74 92 26 92 86 96 18 92 90 76 86 24 42 60 86 92 86 60 26 40 78 40 26 4 82 80 50 80 42 92 98 64 54 80 86 84 62 80 94 76 82 100 94 60 66 64 54 92 70 44 82 44 38 80 38 8 66 68 54 96 98 80 62 80 94 64 62 76 62 76 70 80 70 60 34 64 98 96 90 100 14 28 90 28 82 28 18 60 77 63 1 79 93 95 65 87 1 79 61 63 1 95 25 63 1 79 1 95 1 79 1 95 77 79 1 95 93 95 93 95 17 63 21 27 89 23 41 95 77 95 1 99 85 63 85 95 21 95 57 95 93 47 1 79 81 95 29 95 21 27 97 79 41 99 61 27 61 79 41 27 89 95 53 99 45 99 1 79 57 95 33 39 89 63 57 63 89 27 57 79 57 39 89 27 9 87 21 27 57 95 41 99 77 99 61 63 89 67 61 47 77 31 89 67 89 11 93 55 21 63 89 91 57 67 25 67 53 47 37 95 37 67 53 95 89 47 53 79 73 71 53 67 33 75 53 47 53 99 45 15 57 79 37 83 89 91 53 51 89 35 53 91 45 11 89 63 85 47 53 59 37 47 89 99 53 31 61 83 53 23 37 63 73 87 69 60 66 92 66 88 86 72 50 84 14 48 66 60 50 80 14 92 66 28 94 92 66 96 66 92 66 68 66 48 66 60 66 72 50 92 86 24 34 96 50 12 66 24 66 92 66 48 14 88 74 92 70 84 34 88 90 76 34 84 86 92 14 60 86 52 98 88 66 72 66 76 22 24 34 12 86 40 14 92 54 76 94 76 90 36 14 60 54 32 70 92 90 92 50 96 50 96 70 40 98 40 86 28 66 40 18 96 86 40 26 92 54 8 38 100 70 76 94 40 42 60 82 40 18 100 90 92 46 60 66 96 42 76 98 76 34 40 22 40 50 24 82 96 54 40 70 68 66 80 98 100 78 80 78 100 62 76 62 60 58 96 54 92 74 80 34 76 82 96 6 76 66 92 34 96 74 44 94 40 42 44 98 8 42 60 46 64 37 95 1 71 1 95 93 95 61 95 1 71 1 95 1 95 57 79 1 95 65 95 93 95 1 95 1 95 1 95 1 95 1 47 61 95 1 95 41 95 57 95 73 95 93 95 1 67 57 95 21 95 53 63 21 79 77 79 89 95 21 63 57 95 97 95 1 95 61 99 93 95 77 79 93 95 73 79 93 95 77 63 37 27 77 99 97 79 41 79 5 27 41 71 97 63 41 79 45 27 89 99 73 95 21 95 89 99 37 47 73 83 53 79 73 63 37 63 89 47 97 35 85 75 73 51 53 83 89 67 89 11 97 67 69 99 37 63 53 63 93 79 97 99 49 83 53 83 97 19 77 87 73 87 53 99 73 47 93 83 45 23 89 83 89 15 53 95 53 7 53 35 37 47 97 47 37 83 73 67 89 63 73 15 73 47 89 64 50 96 74 64 50 28 54 84 66 84 62 48 86 12 74 80 50 76 66 48 66 76 14 100 58 84 66 100 54 16 50 96 70 92 66 40 50 32 70 84 66 92 98 28 86 40 66 76 14 88 58 60 70 44 86 68 70 76 86 72 74 92 70 24 90 92 14 88 62 92 14 100 66 92 34 92 86 96 34 24 78 76 50 24 18 92 78 80 66 60 30 92 42 96 82 40 70 40 70 40 66 68 90 40 50 68 38 92 70 92 86 76 70 96 10 44 22 76 58 76 62 96 94 56 50 28 26 92 94 24 74 100 78 24 78 92 70 24 74 16 86 24 58 44 94 96 70 24 46 60 42 96 22 24 26 76 74 60 74 8 78 100 54 44 54 44 54 44 74 80 54 80 82 68 46 80 14 32 98 24 62 60 2 76 38 88 21 79 1 87 77 95 1 95 5 79 13 27 1 95 1 79 1 79 45 95 41 63 1 79 1 95 1 95 1 95 77 95 41 95 1 95 1 95 65 95 21 95 45 27 21 95 1 95 45 79 97 95 9 99 97 79 45 99 97 95 93 95 1 79 1 27 41 79 85 95 97 79 93 79 85 91 89 95 93 99 41 79 57 27 61 27 97 63 89 87 21 47 29 79 53 63 85 83 9 47 77 15 73 67 73 83 89 63 57 99 77 63 77 99 89 31 77 11 5 11 89 31 53 67 73 27 89 91 81 83 93 47 73 99 5 95 53 63 37 67 85 87 89 79 93 27 53 83 89 99 33 11 73 79 69 79 53 35 89 11 53 51 53 47 97 47 37 67 37 91 73 83 73 99 77 31 37 67 1 87 73 35 73 23 85 27 61 76 86 80 86 44 86 72 66 100 66 60 66 48 34 92 86 44 66 40 66 56 14 92 66 88 50 96 66 60 70 96 94 92 66 24 14 92 66 96 70 80 66 92 14 100 14 80 14 92 66 92 86 80 14 92 38 36 86 96 14 84 70 88 26 64 50 92 50 72 86 92 34 96 50 96 50 92 66 92 50 92 70 92 94 92 62 92 98 92 58 92 98 24 74 92 50 92 22 92 86 100 70 72 66 60 38 24 98 100 74 76 98 84 86 40 70 40 62 76 70 88 74 8 54 76 14 24 50 44 98 76 54 80 94 76 82 76 98 44 94 80 70 100 38 80 34 60 82 40 58 92 50 92 38 100 22 76 62 96 82 96 50 100 94 24 74 80 62 76 2 24 94 28 98 96 70 4 42 80 82 28 86 76 82 76 2 100 1 27 93 95 1 63 1 95 1 79 1 95 1 95 1 99 1 95 77 95 1 95 61 95 1 95 25 95 1 95 61 95 61 95 77 79 1 95 1 95 21 95 1 95 33 79 1 95 93 47 89 95 93 27 93 79 53 95 1 79 77 79 81 79 77 79 77 95 93 79 97 55 21 63 25 83 45 27 93 95 93 99 37 95 93 87 77 63 21 19 41 99 69 27 77 95 5 67 81 63 77 11 93 11 89 63 69 47 53 35 73 99 85 11 37 11 53 63 29 87 21 27 41 83 41 87 93 3 73 87 93 83 89 31 5 87 89 87 53 27 65 35 57 91 53 87 53 47 53 83 53 47 53 87 53 51 65 91 53 87 73 99 29 51 81 63 53 51 89 99 89 67 37 83 89 79 45 63 37 83 25 91 37 67 37 91 37 32 66 92 66 40 66 60 38 44 66 80 86 56 66 88 66 64 66 72 66 76 66 96 66 88 50 68 66 64 70 68 66 96 66 96 18 96 14 48 50 48 66 12 50 72 14 40 50 92 14 92 70 60 50 92 14 32 54 76 42 92 14 72 18 92 70 92 66 92 90 60 82 76 34 92 70 92 50 24 74 44 46 100 14 96 78 92 42 92 34 76 50 24 94 92 66 40 90 92 66 76 90 64 98 92 42 60 94 92 38 40 82 76 14 36 86 96 50 100 94 60 94 40 66 24 78 96 82 92 2 76 82 76 54 40 54 24 38 76 74 80 94 24 26 92 70 100 94 24 10 96 50 92 78 76 34 100 58 40 98 36 86 24 54 80 70 24 82 64 82 8 18 16 54 60 38 40 42 76 46 28 86 64 98 80 54 60 89 95 1 39 21 95 1 95 1 47 1 79 1 95 1 95 1 31 1 95 1 79 1 95 1 95 1 95 93 95 1 95 1 95 77 95 89 95 93 95 77 47 21 95 93 95 97 95 13 63 1 95 97 95 1 95 21 27 57 99 93 79 21 79 61 79 81 79 69 95 89 95 69 95 77 47 21 47 49 19 89 79 21 79 93 51 77 63 9 11 89 95 89 79 21 63 57 19 93 27 89 63 77 99 61 47 5 27 85 99 61 47 89 99 89 55 61 27 97 27 89 47 57 99 89 95 89 71 89 11 33 71 53 83 49 47 73 95 89 71 53 31 89 71 73 47 73 99 37 83 89 23 53 71 37 15 37 83 37 31 37 83 53 15 73 19 61 27 37 15 89 15 77 31 37 83 81 47 53 87 37 95 53 71 37 11 85 84 66 84 50 64 50 44 66 92 90 44 50 84 86 80 66 48 66 100 38 76 66 80 66 96 66 84 66 68 14 84 50 68 66 24 66 20 34 80 10 88 86 44 14 52 82 88 18 24 86 84 14 92 70 92 2 40 14 40 14 64 70 68 14 52 98 44 70 92 70 60 46 92 90 92 86 56 58 92 62 40 54 76 86 8 34 60 66 92 78 56 86 76 90 76 22 92 18 76 66 60 18 92 46 40 34 92 86 24 34 40 50 92 66 28 70 40 66 76 78 76 26 76 66 60 2 92 78 44 18 92 66 92 50 100 54 80 94 40 58 44 66 76 70 80 90 24 98 80 86 28 18 80 86 60 94 24 98 96 90 80 62 40 62 28 98 96 54 76 10 8 86 64 78 76 62 8 94 60 98 8 82 44 14 64 38 96 77 11 77 27 1 95 93 95 1 95 93 79 1 39 1 95 1 95 1 95 1 95 1 95 1 95 57 95 1 95 1 95 45 95 1 95 89 95 57 95 1 95 93 95 57 95 77 79 21 63 93 95 69 95 1 95 77 63 9 79 93 79 57 79 41 47 77 95 57 47 41 63 1 83 85 99 25 95 45 83 89 27 77 99 97 27 85 11 53 83 89 95 77 63 49 79 89 3 89 63 53 11 93 95 89 47 61 83 89 47 89 79 89 27 77 31 97 27 53 63 41 15 97 71 89 63 61 99 61 87 37 87 77 51 89 35 53 55 45 47 73 15 37 83 45 67 89 99 53 99 53 35 53 87 77 95 53 99 97 99 37 71 53 79 85 31 61 91 73 75 37 83 89 51 37 63 17 87 53 51 53 83 89 95 13 87 89 32 66 72 66 84 66 84 98 92 66 44 34 12 66 80 22 76 66 40 90 60 86 96 70 60 66 68 66 96 66 96 66 92 66 48 66 96 38 84 66 40 66 12 66 92 14 40 14 92 66 92 14 92 70 92 14 60 34 92 86 64 14 76 38 92 86 92 50 8 14 76 54 92 86 92 38 80 74 92 86 92 6 44 90 92 6 92 34 92 94 92 98 92 38 92 90 76 54 92 78 40 10 64 94 40 54 76 74 40 6 92 14 56 58 80 70 92 86 76 90 76 38 96 34 40 70 80 90 92 34 68 38 40 94 40 66 60 62 76 26 8 90 92 54 100 90 96 58 100 46 36 78 64 66 8 10 44 6 24 70 92 86 60 26 40 82 96 50 76 98 92 82 76 70 60 34 96 98 8 98 92 86 100 94 96 38 68 53 47 93 75 97 99 1 99 61 95 1 91 1 39 1 95 1 99 1 95 1 95 1 63 93 95 21 95 1 99 1 95 1 95 97 95 21 95 93 95 21 95 93 99 93 95 1 95 93 95 5 79 93 27 77 79 93 87 93 95 93 79 57 79 77 95 1 79 1 79 77 47 57 99 53 79 61 95 77 27 53 27 81 27 77 27 89 83 45 27 97 27 9 15 41 27 89 27 37 71 89 11 53 83 53 99 77 83 81 67 93 79 89 11 53 63 77 47 73 95 73 91 65 31 89 79 53 67 37 99 49 95 93 67 37 63 53 83 93 31 53 51 89 67 53 63 89 99 53 63 53 91 53 51 37 95 37 99 89 79 89 87 77 35 69 31 53 67 37 55 73 91 61 19 89 67 93 95 37 99 69 35 53 51 89 55 9 36 98 32 66 84 62 72 14 76 66 28 66 84 58 64 66 44 50 12 86 88 86 84 66 92 14 96 54 92 66 40 66 64 66 84 58 76 14 40 66 48 86 36 66 84 14 76 86 64 14 32 50 92 66 92 66 92 66 92 50 76 34 92 34 76 14 40 66 92 46 92 14 92 90 92 86 8 6 52 66 92 38 40 70 44 54 92 38 92 50 92 70 76 94 92 14 92 38 92 58 52 38 92 42 76 14 96 34 92 34 40 90 76 14 68 62 100 18 40 90 92 86 24 58 24 94 40 26 40 82 8 90 8 6 96 98 96 50 24 38 60 6 8 54 96 66 24 86 96 74 76 62 44 66 60 98 100 66 44 42 76 98 24 58 28 10 40 74 60 98 24 38 96 78 8 90 40 74 60 74 96 66 96 62 64 94 40 93 95 1 51 57 95 57 95 1 95 1 95 21 43 1 23 1 95 73 95 1 63 1 95 1 79 1 95 93 95 21 79 77 95 77 95 77 95 81 95 21 95 1 95 93 95 21 95 21 95 93 79 41 79 21 79 57 11 77 83 93 79 93 79 97 79 77 79 1 79 49 27 61 79 29 79 9 27 21 79 73 27 93 27 29 27 89 63 93 27 97 27 41 27 53 63 53 11 45 79 53 31 77 27 9 11 37 63 41 63 57 35 41 63 53 83 81 55 25 63 37 51 89 47 89 51 89 11 73 87 53 63 89 67 89 95 73 27 53 87 73 87 53 43 53 55 53 35 53 11 53 63 53 15 89 79 37 67 37 47 37 99 89 79 37 83 77 83 37 99 29 79 73 63 73 35 37 51 37 79 53 31 37 75 37 99 73 16 66 68 66 100 34 40 38 80 50 84 66 44 66 88 98 88 66 68 66 32 86 92 66 100 54 96 66 72 66 52 66 52 86 92 14 48 74 68 50 12 38 72 66 8 14 96 14 84 50 92 14 92 14 92 14 76 50 60 90 32 66 60 14 92 66 92 18 92 14 92 78 92 66 32 86 92 14 92 34 92 34 92 90 96 50 92 82 92 14 92 2 92 74 24 50 76 90 92 74 92 2 40 86 24 86 92 94 76 70 40 70 40 98 88 90 40 90 24 94 48 86 40 26 60 90 24 94 40 58 96 98 60 74 24 74 60 98 80 26 92 78 80 50 44 26 76 70 60 90 24 54 96 94 76 58 24 58 64 6 60 54 92 74 60 98 28 58 68 42 96 94 100 78 60 34 76 50 40 78 48 22 80 82 100 26 28 93 79 1 27 1 79 1 99 21 75 5 95 1 99 93 79 1 95 77 95 1 95 1 95 1 95 1 95 93 95 1 95 97 95 1 95 1 95 25 95 81 99 45 95 1 95 21 95 5 31 49 79 21 87 1 79 5 95 57 79 97 99 13 79 37 79 57 79 57 79 45 59 57 63 5 99 93 83 5 27 29 27 41 27 5 63 85 27 89 47 81 83 57 63 33 95 81 27 85 95 73 11 89 11 41 11 57 95 53 31 89 99 37 31 73 75 53 47 41 31 89 83 13 83 89 99 53 55 53 79 73 91 41 51 53 71 57 11 53 99 89 47 53 47 89 99 53 79 53 79 89 19 73 79 53 51 37 79 37 67 37 67 97 67 37 47 53 47 53 91 37 79 37 71 49 83 89 35 89 51 37 83 53 91 45 51 37 84 70 32 66 48 66 88 66 80 66 44 74 92 66 16 66 100 58 40 66 68 66 88 66 64 66 12 66 80 66 40 50 40 66 92 66 92 14 52 66 84 50 76 50 72 66 92 50 84 70 92 66 32 14 8 14 92 66 68 86 76 14 92 86 76 14 76 50 92 18 92 34 96 14 92 54 92 14 96 86 92 70 96 22 92 42 76 86 92 94 92 14 92 34 92 38 92 34 76 34 40 18 76 74 8 82 76 34 100 2 40 78 40 62 40 94 24 98 40 90 40 54 24 18 44 58 40 86 76 98 40 50 60 50 40 62 24 70 8 26 12 54 60 98 40 14 60 62 44 58 56 98 76 14 44 50 24 86 84 94 80 94 80 74 44 90 68 6 80 58 84 98 40 86 96 70 100 98 80 74 60 82 44 90 28 46 76 81 67 5 79 1 43 57 95 1 83 1 95 1 79 1 63 93 79 1 63 21 63 1 95 57 55 1 79 1 83 57 95 13 95 25 79 97 95 57 95 93 95 21 95 57 95 1 79 5 95 57 63 97 79 5 79 93 27 89 79 61 79 69 95 29 99 77 99 5 27 93 63 93 27 77 95 85 63 57 63 53 27 45 83 89 27 81 99 93 27 9 63 41 11 37 31 93 63 89 51 21 79 77 87 41 11 93 11 97 31 53 47 53 47 89 47 25 83 89 11 89 99 89 51 89 67 53 35 89 51 89 95 89 83 53 27 53 91 53 43 53 71 89 71 53 51 53 67 53 83 53 95 53 35 53 99 37 91 37 43 73 31 37 79 45 63 37 51 73 83 37 95 69 83 53 87 73 79 37 47 53 63 73 63 73 47 97 100 66 84 86 76 50 48 86 88 86 32 66 96 66 44 66 36 66 88 66 72 66 84 66 92 66 76 14 84 66 72 66 88 66 84 66 56 66 76 66 40 50 92 2 24 50 32 50 76 14 92 50 96 14 36 14 92 66 92 86 76 14 68 50 88 90 92 86 92 78 60 66 76 14 76 86 92 70 92 94 92 38 96 90 92 74 92 34 92 70 92 78 92 70 76 86 60 14 76 58 76 74 92 90 76 18 76 10 96 70 64 18 40 38 40 34 76 2 40 62 40 2 76 54 40 22 76 34 60 66 8 6 8 82 60 54 60 98 40 10 96 50 100 54 60 70 76 26 92 90 92 94 24 78 40 58 96 46 24 78 64 6 96 58 80 82 8 10 76 70 96 94 24 58 24 6 80 94 8 74 100 98 100 18 96 98 44 57 27 1 95 93 99 57 79 1 27 93 99 77 51 57 95 1 95 1 95 1 95 1 95 21 79 1 95 41 95 1 95 21 95 17 99 21 95 49 95 93 79 57 79 93 63 77 79 77 79 1 27 93 95 41 63 57 79 57 79 73 79 41 79 37 79 1 47 25 27 21 63 65 79 41 27 45 95 81 11 5 47 57 79 85 27 37 63 57 27 97 79 97 83 41 47 57 63 89 63 41 31 77 11 53 31 89 11 73 79 61 79 89 47 53 31 89 63 53 47 97 27 9 79 89 15 89 11 89 99 89 91 85 31 53 31 53 63 53 87 53 95 53 87 53 99 25 31 53 83 53 83 53 79 53 71 89 83 37 63 77 63 53 27 37 83 89 35 73 71 53 31 37 71 37 3 73 55 73 83 29 47 53 67 73 47 37 44 86 76 22 96 66 80 66 72 66 84 34 92 50 64 66 40 66 100 66 48 66 48 66 80 66 84 50 92 66 68 66 68 86 92 66 88 66 84 50 8 66 28 90 24 86 92 66 92 34 76 14 76 70 48 14 96 14 76 50 68 50 92 50 92 70 92 86 96 14 92 86 40 46 40 70 92 70 92 66 40 70 92 54 92 94 92 50 92 2 92 38 92 86 92 42 92 38 44 98 92 30 76 50 92 86 76 2 76 66 40 86 76 58 40 18 76 18 80 14 92 2 76 58 28 54 76 82 24 54 24 70 60 46 96 78 40 18 24 58 92 14 60 38 40 98 76 18 8 42 64 2 80 90 60 38 80 74 44 98 100 34 76 78 64 98 44 94 60 82 28 90 40 82 76 98 76 86 40 82 96 10 96 90 64 22 80 57 63 97 67 93 95 69 99 93 95 13 79 57 63 1 99 57 95 1 95 93 95 61 95 1 95 57 95 1 95 5 95 97 95 21 95 57 99 41 95 61 95 93 79 9 95 41 95 93 79 53 79 85 79 93 79 41 95 1 79 65 79 85 79 21 63 41 63 97 79 5 27 93 99 5 63 93 95 57 27 85 63 53 79 21 27 89 27 73 87 49 11 53 11 81 99 89 11 93 11 89 11 89 11 73 11 53 11 73 47 73 99 37 71 77 55 89 31 61 11 53 95 89 99 53 99 89 67 61 27 57 47 9 83 89 35 89 71 73 99 89 27 53 31 53 95 89 47 53 35 53 95 89 51 61 51 53 15 37 47 53 15 37 83 37 91 37 67 37 51 37 71 37 63 37 79 37 95 89 83 93 35 37 63 89 71 37 76 86 92 66 80 86 84 66 24 58 48 86 100 66 96 66 12 46 84 66 40 50 12 66 80 66 60 66 56 66 92 82 76 54 84 50 12 50 52 66 88 50 68 66 60 70 32 50 60 54 40 54 92 86 12 34 40 14 76 50 80 50 76 70 100 14 76 86 68 58 28 74 92 14 76 86 92 50 76 58 80 42 92 70 96 94 92 2 92 50 68 58 92 70 92 82 40 46 92 90 92 18 96 54 92 74 40 18 60 2 92 74 40 38 76 54 76 66 92 58 60 58 60 22 92 90 24 82 24 94 24 74 80 46 60 62 24 54 60 82 88 78 76 46 40 98 8 98 24 90 24 6 8 46 96 14 80 62 96 26 84 46 80 50 80 58 96 74 80 74 96 2 96 58 72 22 28 98 60 98 60 74 80 58 36 98 64 93 39 57 95 57 95 21 79 21 95 1 27 41 79 57 63 1 95 57 55 57 63 61 79 25 95 89 95 1 95 97 95 21 95 97 95 5 99 57 99 57 63 57 79 93 95 49 79 9 79 93 79 77 79 57 79 21 79 1 79 25 79 93 79 21 79 89 79 97 79 5 63 93 63 89 99 73 63 93 99 73 27 57 47 89 47 97 99 61 27 93 99 73 27 89 47 57 31 61 11 73 11 25 11 69 11 97 63 89 11 21 67 93 11 53 99 25 79 89 31 53 47 53 99 1 31 89 15 89 83 5 63 89 31 89 43 53 99 37 67 53 99 53 83 89 71 37 95 53 99 85 87 93 95 37 79 89 83 37 3 37 83 37 87 37 51 37 91 41 43 89 47 89 59 37 35 45 15 37 15 65 47 81 15 85 83 69 52 58 96 86 100 66 88 34 72 54 68 10 48 66 84 86 44 66 24 66 92 66 48 66 40 66 96 66 12 70 100 66 48 86 92 66 96 86 92 86 60 50 80 50 36 94 96 18 76 14 92 70 92 90 92 70 64 18 96 50 40 50 44 66 28 70 92 94 92 66 96 70 60 70 92 34 72 86 92 90 76 62 92 66 92 54 92 50 92 66 76 70 92 70 92 70 92 94 40 98 76 70 92 38 76 2 76 70 76 26 76 86 76 82 40 58 40 34 76 90 40 2 36 54 24 78 8 90 24 90 28 66 96 94 24 50 24 90 100 98 24 98 96 74 44 58 44 38 100 30 28 74 44 66 92 74 24 70 96 74 80 10 8 82 76 82 88 74 28 54 100 82 48 70 80 70 84 82 8 70 60 46 76 98 56 66 64 93 43 41 67 57 95 41 95 21 95 1 47 1 99 9 95 57 95 21 95 61 79 25 95 21 95 93 83 57 79 21 31 57 95 21 95 53 79 41 79 41 35 93 79 5 99 21 79 21 95 57 63 41 79 5 79 5 79 77 99 41 63 53 47 21 63 53 79 57 79 77 63 49 63 97 47 93 99 57 99 97 27 29 63 57 63 97 63 57 27 45 27 25 99 37 83 49 63 37 11 73 11 25 11 53 11 85 11 49 11 73 11 53 99 89 83 89 31 93 91 89 99 89 63 89 99 9 11 89 31 53 87 53 67 53 95 53 67 89 67 65 47 53 19 89 55 89 83 53 63 89 19 53 51 37 83 37 35 9 63 53 7 37 11 53 67 37 99 73 3 37 47 37 71 73 47 53 95 37 51 73 75 37 95 17 63 37 92 90 92 50 8 66 84 66 72 66 48 62 88 14 60 90 92 54 12 66 72 66 100 66 52 66 60 66 96 50 84 50 8 86 100 66 24 66 92 50 48 14 76 50 40 50 76 50 12 66 32 86 92 14 92 50 92 18 76 50 72 34 92 14 60 90 92 74 88 50 92 78 64 66 92 34 92 18 92 42 92 18 92 34 92 34 92 50 76 70 92 6 92 66 92 34 100 98 76 26 92 66 76 54 76 82 76 58 4 94 76 18 60 18 76 74 76 90 24 46 40 74 96 66 60 94 24 38 24 34 28 82 40 98 24 94 80 82 24 94 96 22 76 58 96 82 24 46 68 54 8 90 8 98 8 58 80 46 8 34 60 70 44 82 8 34 44 94 40 46 64 38 80 38 16 78 100 78 64 50 8 98 64 86 40 46 44 81 59 93 63 21 95 69 95 89 79 1 95 93 3 97 95 21 95 21 95 21 51 97 95 21 79 41 99 57 63 97 95 21 99 1 95 97 79 57 95 57 95 57 63 21 79 21 79 21 79 57 79 57 95 1 79 73 79 81 79 25 79 21 27 25 95 77 63 61 63 57 79 21 63 97 63 57 99 45 83 97 83 41 79 49 31 73 55 57 63 77 47 13 67 77 87 29 67 77 67 81 47 57 63 81 47 81 15 73 11 89 95 45 63 65 39 89 63 97 83 73 63 25 99 69 11 61 83 49 67 53 47 89 11 89 91 89 67 73 95 89 63 89 11 37 15 89 31 81 51 53 63 89 27 37 91 53 63 37 87 37 87 73 67 37 99 37 63 37 71 97 83 37 15 53 67 97 51 73 67 81 95 89 83 37 67 73 84 50 20 66 92 94 96 86 12 70 24 50 56 66 68 66 64 66 52 66 60 66 48 50 96 86 84 50 12 86 96 66 96 86 32 66 92 86 48 50 96 34 92 50 92 86 92 50 84 50 40 70 80 70 68 82 92 86 60 66 68 70 80 86 76 14 92 34 16 34 96 34 60 86 76 34 92 90 92 50 92 18 92 94 92 34 92 98 76 70 92 70 92 90 76 62 76 58 68 22 60 86 44 26 76 2 76 58 76 94 76 34 60 50 76 82 60 54 24 66 40 62 40 98 92 74 92 94 100 78 80 62 24 94 92 22 24 70 24 86 24 18 100 74 96 34 80 66 76 10 88 62 28 2 96 82 44 70 96 30 80 98 8 66 8 94 28 26 64 62 88 78 96 90 76 70 80 46 96 66 96 62 60 42 60 62 96 57 79 57 83 57 95 41 99 81 35 93 95 1 39 93 79 93 95 81 79 21 83 5 79 97 99 41 95 57 95 21 95 21 95 9 95 5 63 5 95 41 79 77 79 57 95 77 95 21 79 21 95 5 79 61 79 5 79 89 79 41 79 93 95 49 95 61 99 21 63 81 63 61 99 61 63 41 63 81 99 57 63 73 99 5 99 89 63 65 27 89 63 29 47 25 99 53 11 93 47 97 55 41 79 97 67 41 11 25 83 45 47 53 95 89 79 49 47 89 15 37 99 53 31 93 83 53 83 53 95 89 47 89 67 89 63 89 63 89 47 53 91 73 51 89 51 89 87 53 79 37 31 89 91 73 79 37 91 89 47 89 51 37 91 53 83 37 99 37 39 73 87 65 35 29 15 89 87 37 99 89 83 73 51 53 83 61 32 50 12 82 96 66 36 66 92 50 84 50 100 86 60 66 60 66 88 90 92 66 68 50 48 90 84 66 68 34 80 14 48 50 16 86 84 50 76 66 64 50 84 50 32 70 96 50 96 50 96 66 28 90 80 34 28 14 32 34 68 50 92 34 80 14 68 86 92 50 60 74 76 38 92 18 92 86 92 50 92 18 92 38 92 86 28 86 88 22 92 70 96 18 92 86 76 50 92 2 92 98 76 82 40 58 76 50 76 54 76 86 24 34 76 54 80 78 76 78 60 66 24 54 60 70 24 90 40 82 24 50 96 74 60 94 44 46 60 90 44 54 24 74 44 74 24 78 8 74 44 90 8 82 76 82 8 82 44 62 80 98 100 30 8 66 44 82 28 22 44 90 88 94 44 70 8 50 60 26 8 70 24 90 92 86 24 21 95 25 95 93 95 77 79 21 79 57 95 33 99 57 83 93 95 21 95 21 95 93 79 21 79 21 47 21 95 21 95 25 95 93 95 57 79 93 95 81 79 21 79 89 27 21 83 81 27 21 95 5 95 57 79 5 79 1 99 61 79 73 47 81 79 5 63 93 63 21 99 97 99 97 63 77 31 45 63 65 63 93 63 57 63 53 27 57 63 41 67 81 47 77 47 89 47 89 47 61 11 1 99 73 83 25 67 73 63 89 67 9 3 25 31 73 67 53 31 25 59 89 47 89 47 93 47 89 67 89 15 89 83 89 27 89 83 89 19 89 99 89 31 89 15 53 15 73 31 73 11 89 91 73 35 73 99 73 83 37 63 37 63 37 83 77 91 53 55 93 87 37 51 37 47 37 19 37 35 89 47 89 15 73 63 37 40 66 76 66 52 66 92 86 76 66 72 54 48 66 32 74 48 66 88 66 88 66 68 50 72 66 88 66 84 66 76 18 20 86 64 66 88 66 76 86 68 50 84 66 76 50 100 50 96 50 16 70 84 50 92 50 76 34 24 90 56 86 92 34 96 90 76 34 92 34 76 50 92 74 100 14 76 18 92 66 92 18 60 90 96 26 92 54 92 18 92 70 92 90 92 34 76 62 76 98 76 86 80 38 76 18 92 50 76 98 76 74 76 18 32 94 40 6 24 46 44 70 60 62 24 2 60 42 24 10 40 62 60 90 92 82 24 94 100 50 44 94 60 54 76 54 28 70 8 94 60 98 8 94 80 26 8 74 72 86 8 46 96 10 80 98 100 6 28 74 52 38 8 62 44 82 44 94 80 98 96 82 96 98 20 46 72 25 79 93 95 57 11 77 83 93 79 61 63 57 95 93 95 21 95 21 83 57 47 57 71 57 95 57 63 57 95 69 99 21 79 69 63 1 95 57 95 93 95 21 79 69 95 25 79 77 79 21 95 57 79 21 63 57 79 93 27 97 79 45 63 93 99 89 47 93 95 73 79 85 99 21 63 45 63 41 95 5 63 29 99 77 99 25 11 77 47 1 47 89 99 81 63 41 47 77 31 89 11 93 47 41 79 49 47 89 47 89 67 33 47 73 47 73 83 89 79 53 83 69 31 53 47 73 47 89 51 89 67 89 91 89 11 89 35 89 63 89 87 1 47 37 67 85 99 73 79 73 67 89 79 53 83 73 95 81 63 85 91 37 31 53 99 73 67 89 43 37 91 97 15 97 91 37 87 77 99 93 91 97 55 89 91 53 100 66 80 66 100 66 76 66 92 66 96 66 68 70 96 66 92 70 32 86 88 66 92 30 12 50 12 50 8 66 96 70 60 50 84 66 80 50 92 86 96 50 56 86 48 86 40 50 52 70 48 50 56 34 92 86 72 34 8 86 92 86 92 66 56 34 60 34 72 86 92 14 76 18 92 66 92 34 76 86 24 66 92 34 92 74 40 38 92 90 92 34 36 34 40 78 24 98 92 70 92 90 92 74 76 90 64 18 76 2 76 78 92 34 76 34 96 86 96 78 76 38 28 42 60 98 60 78 80 58 60 14 60 70 60 42 8 22 96 94 8 62 24 42 24 94 40 74 96 66 8 90 8 50 8 74 8 38 8 6 80 46 96 94 60 42 40 98 64 98 80 82 96 82 44 78 28 90 96 58 92 74 60 58 100 90 76 1 75 41 95 93 79 57 79 57 99 1 95 57 39 93 83 57 63 57 67 57 95 57 95 57 47 21 95 5 95 21 95 21 99 21 79 45 39 93 99 21 99 77 99 97 63 61 47 77 99 21 95 81 79 5 63 93 99 45 63 41 99 1 83 49 79 21 99 69 99 93 79 41 47 25 63 41 63 57 99 29 47 89 27 61 63 97 99 61 83 77 47 25 11 97 47 73 47 57 31 45 47 89 31 25 83 89 31 61 31 77 47 93 31 89 83 89 83 89 27 61 15 45 51 89 67 89 35 81 11 89 67 89 63 89 87 89 31 89 67 89 87 73 63 37 51 89 87 73 67 37 15 65 55 73 83 73 15 53 31 73 35 37 31 73 35 89 63 37 15 73 31 45 71 37 31 41 87 73 11 17 55 73 51 89 31 33 92 50 48 66 84 66 96 86 92 90 76 66 40 78 96 98 48 86 56 66 12 66 76 86 88 86 32 66 84 90 100 66 100 66 88 42 76 86 32 90 92 86 96 66 24 86 100 86 72 86 88 50 56 70 80 70 52 18 96 34 84 34 88 34 96 70 40 34 92 86 92 34 36 66 92 86 76 86 76 50 92 22 40 18 92 34 76 34 92 98 92 34 92 90 44 94 92 66 96 22 28 58 60 94 76 54 60 94 76 38 76 98 76 26 76 38 96 78 96 90 96 50 40 34 92 2 60 54 96 18 60 86 24 98 60 74 96 58 60 98 76 82 80 82 8 2 60 78 8 50 8 50 80 70 28 46 8 78 44 54 76 58 96 78 44 50 96 78 80 82 64 78 28 6 100 58 44 42 92 10 24 74 28 62 28 38 64 57 31 93 95 57 95 21 95 93 99 5 95 57 95 57 99 1 67 57 95 93 79 93 95 21 79 93 87 21 99 21 99 21 79 21 95 21 67 21 99 57 51 21 71 21 79 21 79 21 79 5 91 57 63 5 67 21 79 77 99 61 87 85 99 21 79 25 95 41 99 5 99 61 83 57 99 21 99 61 99 61 79 53 79 85 99 29 63 57 47 89 47 29 47 49 47 53 47 65 47 97 99 73 99 89 83 53 31 81 99 77 51 81 83 97 31 73 91 53 15 69 83 73 31 89 63 89 83 89 91 53 15 81 27 89 67 89 87 89 15 89 67 89 71 89 31 89 87 89 15 73 31 73 67 89 55 73 31 73 31 53 35 73 87 57 47 37 51 73 35 61 91 73 11 97 71 73 91 33 79 37 31 89 55 89 87 37 92 94 80 50 48 86 48 30 32 18 84 14 68 86 84 90 96 86 92 66 52 66 68 90 68 86 68 66 68 66 92 90 64 66 68 86 48 70 96 50 68 86 24 66 92 86 92 86 48 50 80 50 76 50 76 50 84 34 32 86 88 34 92 34 64 34 92 34 60 18 92 18 92 50 76 62 76 78 92 18 60 90 48 18 48 50 60 34 96 66 92 74 76 90 92 26 96 90 96 18 60 54 60 90 76 18 76 86 76 2 76 70 76 54 96 82 76 82 60 86 60 42 60 58 68 54 60 74 80 82 60 74 60 74 64 98 24 18 80 66 72 14 60 74 44 98 80 46 8 46 24 90 8 82 8 98 64 78 44 22 8 10 28 22 60 82 92 58 80 74 8 62 44 66 44 10 92 82 28 82 92 78 100 18 64 78 24 93 79 93 3 93 95 57 99 69 67 57 95 21 95 93 79 41 79 73 99 21 99 41 83 21 43 21 99 1 95 57 95 21 99 5 31 21 95 21 79 57 79 5 79 57 11 41 99 5 99 93 99 5 39 5 55 5 95 57 95 5 79 77 63 57 99 65 83 37 99 57 99 25 99 89 63 21 99 61 99 61 63 5 31 81 63 65 63 89 47 73 47 45 47 85 47 89 47 85 47 93 99 93 47 89 67 93 11 53 83 37 63 89 83 97 67 89 83 89 83 77 99 89 11 89 87 89 31 89 31 89 63 89 55 73 63 89 67 89 83 89 15 89 99 89 31 33 31 73 15 61 55 73 83 73 95 89 31 61 87 73 91 89 19 73 19 37 99 53 95 89 67 73 71 53 87 73 35 73 55 73 99 53 91 53 63 69 60 66 60 34 68 66 28 34 32 34 84 66 92 86 48 66 24 70 84 66 92 86 84 86 84 66 84 86 48 86 92 86 88 14 96 86 32 86 12 86 36 86 52 86 76 50 60 86 96 86 60 86 96 86 92 34 96 86 72 70 60 70 92 34 76 50 60 74 16 34 76 70 84 34 40 34 92 2 64 70 92 18 96 18 60 18 92 90 92 14 92 18 76 90 92 18 92 90 76 70 44 50 100 90 76 18 36 26 76 54 76 26 92 26 76 14 76 38 96 70 8 78 60 58 80 74 64 74 60 90 60 94 60 94 96 58 8 82 8 74 76 22 44 74 96 78 44 58 44 10 44 2 8 38 28 58 96 54 96 82 44 62 28 50 28 54 76 82 80 62 100 58 100 58 60 78 24 78 64 94 64 10 80 54 88 74 96 57 95 57 99 93 95 77 23 57 95 97 19 77 95 21 95 57 99 57 63 57 23 21 95 93 63 21 83 21 79 21 7 21 95 77 75 21 79 21 79 5 75 5 79 5 99 1 71 41 95 61 83 93 99 57 99 21 99 45 99 41 99 25 87 77 63 29 99 65 99 5 99 9 63 33 99 41 99 77 63 85 99 57 99 13 99 81 47 1 83 25 67 41 99 61 47 65 47 9 99 89 47 97 11 81 47 5 99 73 67 49 47 89 31 73 31 89 35 13 99 89 67 89 11 89 63 89 31 89 83 81 15 89 67 89 47 89 15 89 15 89 51 85 59 89 51 73 51 61 91 37 15 73 15 89 55 89 47 73 35 73 15 73 31 73 15 89 83 73 59 73 39 37 83 61 99 73 19 73 75 73 87 89 67 73 67 73 52 22 24 66 84 66 100 86 24 70 84 66 96 86 8 66 88 86 96 86 36 50 88 70 88 50 88 34 68 86 84 86 100 86 60 86 80 86 32 86 96 86 56 86 28 86 80 86 84 86 92 50 84 50 92 50 68 34 76 14 92 70 80 66 12 62 12 70 92 54 68 34 84 54 92 70 92 50 24 90 60 54 40 74 92 94 76 18 100 94 60 18 92 74 96 18 100 58 100 50 76 94 8 2 76 78 76 90 76 66 92 74 76 90 96 6 64 18 76 46 96 58 80 98 60 78 60 42 60 22 44 90 76 90 96 98 96 70 8 50 68 98 80 98 44 98 44 94 96 42 44 70 76 58 60 34 80 54 64 82 96 54 64 62 28 58 60 58 80 6 44 26 68 82 28 10 44 38 8 62 28 94 60 86 80 26 88 77 83 57 79 93 79 57 63 77 63 93 95 21 79 97 95 93 79 57 95 77 79 57 63 57 39 57 99 57 95 57 43 5 11 93 67 21 39 61 83 81 47 61 31 21 99 1 79 41 83 5 99 49 31 5 99 97 99 5 91 57 99 25 99 37 99 93 99 45 47 25 99 41 63 45 99 61 99 61 83 73 83 57 83 97 99 25 63 85 83 45 83 93 11 29 47 89 47 61 47 57 67 45 47 93 79 93 47 77 47 21 63 53 47 73 31 53 51 89 83 85 63 89 99 73 31 89 83 53 47 53 19 53 31 73 67 73 43 73 83 89 31 89 51 89 35 49 87 73 67 73 95 73 27 89 87 73 51 89 47 73 47 73 91 73 99 73 91 73 67 73 71 73 83 37 55 73 27 73 71 73 63 89 91 81 91 81 76 66 76 86 84 86 92 90 64 70 40 86 48 58 36 66 44 66 48 50 76 86 80 50 92 86 92 86 84 66 60 86 12 86 96 86 92 34 28 86 52 86 92 86 12 86 96 86 40 86 48 86 92 50 92 18 92 34 68 34 84 34 92 34 92 74 92 34 92 18 92 34 92 34 48 70 84 74 76 86 32 18 92 18 40 82 92 18 96 54 48 18 60 18 60 54 76 94 76 38 92 94 44 78 76 90 76 70 76 90 60 22 24 90 60 66 60 18 60 74 80 54 60 46 96 42 60 2 96 94 60 86 44 70 60 38 44 86 24 22 76 66 60 42 44 26 96 10 28 90 44 78 100 22 44 38 44 90 44 62 44 86 92 70 40 94 100 54 60 82 60 50 76 94 28 98 28 94 64 46 44 82 80 26 100 98 64 93 95 97 79 93 67 93 87 5 99 57 95 57 83 97 3 21 95 69 95 57 67 57 95 77 99 21 99 93 95 57 99 57 79 57 99 5 79 5 95 57 7 41 99 45 95 77 31 21 99 5 79 57 79 5 99 77 63 5 63 97 79 81 99 5 99 25 99 25 99 57 99 61 99 61 99 81 99 5 67 61 99 25 99 37 27 41 83 81 99 49 83 85 83 9 31 41 83 25 47 89 47 93 31 97 31 73 95 69 99 89 31 89 31 89 67 25 11 89 31 89 83 73 15 81 99 73 83 93 99 45 15 89 31 89 19 89 87 89 99 73 87 89 31 69 83 53 31 73 27 89 31 73 95 77 83 73 71 53 15 85 79 73 35 73 83 73 51 73 27 89 35 45 23 37 91 81 71 37 35 89 55 73 79 89 43 65 84 66 32 66 92 82 64 86 72 74 84 86 84 66 68 70 12 86 68 34 52 86 84 70 64 70 48 66 48 86 92 86 72 70 36 86 96 86 88 86 92 86 76 86 12 50 4 86 48 86 92 50 92 86 92 70 100 86 80 70 88 14 100 86 68 50 76 34 20 54 48 38 92 34 96 50 8 54 44 18 96 58 96 50 92 94 96 86 76 38 40 70 92 18 96 74 76 86 76 90 76 50 76 90 76 2 8 18 76 2 96 6 76 82 24 54 80 2 40 58 60 90 60 54 96 58 76 26 60 86 44 90 60 42 96 90 44 70 44 38 44 90 60 74 80 90 44 18 80 6 8 38 64 18 12 90 80 38 44 66 80 74 28 78 8 98 44 74 28 2 64 82 28 94 64 38 80 98 28 74 28 98 80 94 64 42 44 93 83 77 47 57 3 41 95 93 95 93 95 21 99 21 39 93 79 21 87 21 95 57 83 57 99 21 27 41 99 57 79 21 99 57 87 1 99 5 31 21 95 77 99 21 99 93 83 5 79 41 95 5 63 5 63 97 79 5 99 41 99 21 99 29 99 9 99 41 99 85 99 97 99 5 99 9 63 77 99 81 99 9 63 41 83 77 99 65 83 5 47 89 47 41 47 29 87 93 83 65 47 25 27 89 99 29 47 73 31 33 31 93 31 89 47 13 99 89 31 41 51 89 15 97 59 73 39 89 15 89 15 89 15 9 51 89 87 89 63 89 31 37 51 89 55 89 91 53 27 73 15 73 87 73 35 73 51 37 83 73 91 37 15 73 51 97 51 13 79 89 19 53 91 73 31 73 71 73 83 73 95 73 91 73 51 93 84 50 96 38 76 86 92 62 48 66 76 74 32 66 88 50 92 82 76 86 84 78 88 70 56 86 68 86 84 86 76 86 84 86 48 86 84 86 84 86 84 86 12 86 88 50 96 86 60 70 84 86 68 34 92 54 84 34 92 18 44 54 76 54 56 70 76 70 72 74 92 70 32 90 68 34 40 70 80 18 76 90 96 70 96 18 96 38 96 18 36 70 76 54 96 18 44 94 8 38 88 2 76 22 76 18 76 38 76 14 80 34 96 66 96 70 76 18 60 58 60 42 96 90 60 94 96 74 80 22 96 98 64 86 80 22 60 54 44 94 44 46 60 74 8 38 44 46 28 82 52 98 44 10 80 90 44 50 8 94 64 62 8 22 100 62 64 26 44 74 64 94 80 82 100 54 64 26 64 98 60 90 44 98 28 74 96 93 95 33 99 57 95 85 83 93 95 93 79 21 95 41 95 57 91 93 59 61 95 21 59 57 67 57 79 57 99 57 99 57 67 41 83 93 59 21 99 69 95 5 51 41 63 5 95 77 99 81 99 1 63 61 63 41 83 5 99 97 71 89 99 41 99 97 83 41 99 25 99 41 27 97 83 5 99 1 83 61 99 25 31 85 47 81 31 97 83 25 83 37 83 41 47 97 47 93 99 41 35 9 63 89 67 29 47 65 31 41 95 9 31 93 95 89 31 61 31 77 83 57 79 89 47 89 31 89 51 89 99 89 15 81 91 89 83 37 15 89 35 97 67 89 59 49 27 73 83 89 31 73 87 73 51 73 91 73 71 89 91 73 19 73 19 73 35 37 15 81 91 73 87 73 71 73 11 73 19 73 99 93 87 53 71 77 56 50 76 86 96 58 24 26 48 86 60 50 84 54 12 54 60 82 12 86 72 34 48 86 32 54 12 90 32 86 84 90 84 86 64 70 32 86 32 86 76 86 32 86 12 66 12 86 88 86 12 70 48 70 68 70 76 70 48 70 96 70 92 54 12 34 92 86 52 70 76 54 92 70 32 38 80 18 96 70 92 18 20 18 96 18 32 22 96 38 96 58 76 62 84 70 92 58 92 74 92 58 80 78 44 38 92 46 76 54 60 90 96 74 100 82 96 70 96 94 60 26 96 94 96 70 60 58 24 54 96 62 60 86 80 54 96 74 96 78 44 78 44 78 16 78 76 70 44 94 80 78 36 42 44 82 64 10 80 90 96 10 28 10 28 94 28 86 28 58 28 66 80 22 64 78 64 82 40 98 64 70 96 98 32 26 4 93 43 41 79 93 79 93 63 41 99 21 91 41 95 41 79 93 79 41 99 21 55 57 43 21 95 57 15 57 63 57 47 57 71 57 95 57 99 57 87 61 63 1 99 45 83 57 83 57 83 41 11 41 79 45 99 77 27 5 99 25 83 77 99 77 99 65 99 41 99 5 99 5 79 81 99 97 99 41 99 61 83 93 83 25 99 61 83 13 83 49 83 21 83 97 47 9 31 53 47 97 47 93 47 73 47 53 67 89 31 37 99 81 31 81 31 9 99 77 31 89 79 69 83 93 31 61 67 29 15 89 83 73 15 61 87 89 63 89 51 73 67 89 51 73 87 73 51 73 51 89 63 73 35 73 99 73 91 73 99 73 43 29 67 73 71 73 51 53 95 73 51 37 63 73 87 37 19 89 71 73 63 89 91 89 87 73 52 66 88 86 72 86 72 90 96 86 32 86 48 86 60 86 88 86 96 58 48 50 48 50 68 66 72 86 84 86 88 34 84 86 88 18 12 86 48 86 28 78 12 62 84 86 76 86 100 86 48 82 48 74 44 34 92 70 92 70 48 86 80 54 84 70 36 54 48 70 16 86 36 70 60 90 60 74 68 18 76 2 44 86 92 54 60 50 44 38 60 42 40 2 96 22 80 90 92 86 60 2 60 74 76 90 60 74 96 6 96 74 60 94 96 38 40 94 96 66 96 54 96 18 60 38 92 90 44 14 80 42 76 42 96 94 80 58 44 98 40 82 44 78 44 50 44 82 44 74 44 94 80 82 60 42 28 98 44 34 44 14 64 90 8 22 44 90 96 2 100 98 64 74 24 78 80 94 56 78 72 42 72 46 100 54 64 1 95 93 95 93 47 57 95 93 95 21 67 57 95 57 99 93 99 57 99 57 99 57 95 57 79 57 95 57 99 57 79 57 95 77 95 41 99 21 79 57 51 41 27 41 99 5 99 57 99 5 79 5 99 5 63 41 95 93 99 25 99 21 99 61 99 21 99 21 99 81 99 41 99 57 95 93 83 61 39 97 99 81 67 85 99 61 83 25 95 5 83 45 47 89 83 77 83 97 47 73 95 41 87 41 83 33 31 89 47 9 31 81 67 97 79 89 31 29 31 9 47 89 51 89 63 89 15 81 67 93 67 97 91 61 67 53 83 33 83 97 71 73 51 73 83 73 47 97 31 73 15 53 51 73 51 65 35 73 31 73 31 73 67 89 87 73 71 37 63 73 87 73 19 65 83 29 55 73 95 97 71 77 91 73 63 73 60 46 84 66 60 70 100 66 84 98 12 86 84 86 60 86 12 82 44 66 80 18 68 86 40 66 80 30 76 86 68 62 12 66 92 50 56 50 92 86 92 86 92 86 48 86 48 70 12 50 76 86 16 74 36 70 76 70 48 70 12 70 88 34 84 70 44 50 64 54 88 18 60 34 84 54 80 90 96 18 16 14 92 62 48 38 44 26 96 54 96 70 92 54 100 18 96 2 72 54 76 66 96 90 96 74 96 66 96 70 96 78 96 38 76 62 96 18 96 46 96 46 96 6 96 90 68 54 80 74 60 98 80 98 80 54 44 18 96 38 44 58 44 70 60 74 64 90 44 58 60 38 80 62 28 70 28 94 100 98 28 50 80 94 28 78 28 90 28 6 100 90 100 74 28 90 28 58 28 90 64 66 28 18 100 90 64 93 95 93 99 77 79 41 79 93 31 57 67 89 99 93 79 93 99 93 99 93 3 57 39 57 79 57 7 41 79 41 39 57 99 93 39 93 79 57 83 77 99 65 99 45 91 61 91 93 99 77 63 93 99 5 99 61 99 77 99 41 99 5 99 25 83 29 99 45 99 41 99 73 99 41 99 57 47 77 83 45 83 65 83 81 95 45 47 61 55 9 83 69 83 1 83 97 51 77 67 77 67 49 99 73 83 93 67 77 83 57 47 25 31 89 31 13 31 89 15 29 31 65 87 89 15 65 15 81 31 85 91 29 47 89 31 73 83 25 15 37 51 89 51 73 35 89 35 57 87 73 51 73 71 73 51 73 67 73 99 73 83 73 71 89 95 73 67 73 19 73 51 73 87 37 91 73 87 73 35 89 55 97 99 97 71 73 100 86 88 90 52 70 84 66 92 86 84 70 84 54 76 66 100 46 68 86 56 70 48 90 48 74 48 66 68 14 96 86 76 66 84 70 52 86 48 50 96 66 48 82 88 50 68 50 48 90 84 86 80 70 92 70 64 70 64 70 84 70 96 70 72 70 32 58 100 34 32 38 92 38 92 90 80 70 12 54 80 18 96 42 92 6 92 54 56 70 96 54 96 22 96 2 76 94 96 54 80 2 76 74 96 66 96 38 76 94 96 2 96 46 96 94 96 94 96 50 96 50 96 14 96 62 44 78 60 42 80 42 44 98 88 66 80 86 44 70 44 42 100 98 44 42 28 58 80 94 44 6 8 78 44 58 60 46 28 6 80 66 28 6 100 26 28 42 28 90 28 62 28 58 96 94 60 78 100 78 28 42 28 82 44 54 8 77 67 77 83 93 75 93 95 85 95 77 79 57 95 77 99 57 35 97 75 93 87 93 99 93 99 93 27 93 95 57 3 57 23 57 99 41 83 25 99 77 75 41 55 97 51 21 79 41 67 41 67 41 99 41 83 93 99 97 11 85 79 5 99 57 99 5 63 41 99 5 83 77 79 81 99 85 99 61 75 29 99 97 67 49 99 81 83 77 83 45 47 85 83 25 83 97 67 65 83 73 67 9 67 77 67 57 63 53 67 81 67 65 67 9 47 97 31 1 99 73 31 45 79 29 71 41 67 49 55 89 15 73 83 85 15 81 99 81 15 73 15 65 83 73 95 21 15 73 15 89 35 65 79 73 87 97 27 53 83 13 75 73 11 61 79 73 67 73 95 77 99 73 59 73 83 73 19 73 71 37 71 61 31 69 55 77 64 90 92 86 84 58 80 66 32 86 88 86 48 50 12 2 84 86 40 90 48 86 92 50 92 86 32 86 12 10 28 34 92 58 92 30 16 86 48 74 68 70 84 70 96 86 12 86 12 70 32 70 72 70 96 70 60 70 96 42 84 70 48 70 48 70 96 70 68 86 28 66 52 74 96 54 40 54 80 90 92 90 76 18 96 2 24 54 76 90 40 94 96 58 92 6 8 54 96 2 84 18 92 2 88 70 96 2 48 2 96 38 96 18 96 70 96 98 96 54 96 62 80 78 96 22 96 42 96 70 100 58 96 18 44 78 80 6 96 38 24 66 96 82 80 94 92 94 44 94 44 10 44 38 24 38 28 66 64 38 28 6 28 74 28 98 28 34 28 22 28 6 28 46 28 58 60 98 28 6 80 70 44 6 96 66 28 93 39 93 95 57 95 57 39 41 67 93 99 57 99 93 3 93 79 93 87 77 95 93 99 57 23 93 3 93 39 57 95 93 91 93 99 77 99 57 75 57 79 93 31 41 99 93 83 77 95 77 67 25 83 93 83 45 83 57 99 41 67 61 67 41 99 25 99 41 99 81 99 37 99 25 99 65 83 65 83 93 27 77 99 73 31 37 83 97 11 97 63 1 83 81 83 81 83 93 83 85 83 25 67 93 67 45 67 29 67 65 99 65 67 65 87 53 67 69 67 93 63 9 83 89 15 81 91 73 51 97 95 81 15 9 15 89 15 89 15 89 91 73 31 73 51 89 67 73 51 73 27 37 15 69 75 89 35 73 15 73 51 73 31 89 67 61 87 73 71 37 31 61 79 89 43 41 47 45 55 73 71 89 23 49 71 65 100 66 72 74 72 26 68 90 48 74 84 86 100 90 84 70 48 86 84 66 84 90 48 50 76 86 60 90 56 34 96 86 56 86 48 78 52 86 84 82 12 38 84 86 12 86 12 50 68 34 84 70 44 14 84 70 68 70 96 70 80 86 32 86 20 86 84 70 72 70 88 54 92 42 60 54 92 54 84 54 96 54 12 54 44 54 92 70 68 98 100 54 28 38 92 18 96 38 96 90 96 2 72 2 8 2 96 94 96 54 60 54 96 90 96 22 96 74 96 2 96 22 96 66 96 86 96 38 76 38 96 38 80 42 96 50 80 46 44 78 80 94 44 94 80 74 44 26 80 74 64 90 96 74 80 94 28 94 64 78 96 74 28 22 28 98 28 58 28 66 28 54 28 38 64 62 80 82 100 86 28 94 44 50 28 94 92 93 95 93 47 57 71 77 95 93 99 57 83 57 99 77 99 93 47 93 87 93 63 93 23 57 91 57 95 77 99 93 79 41 63 61 79 57 99 93 67 57 63 5 99 41 99 77 79 41 99 77 95 41 7 41 23 41 63 25 83 77 63 81 83 25 83 97 35 61 99 77 99 81 63 77 71 77 99 25 47 25 83 9 83 77 83 25 83 9 83 53 83 57 67 45 83 81 63 97 83 17 83 77 83 45 55 89 83 61 67 25 67 81 67 41 31 93 87 93 51 81 35 93 15 9 83 77 15 77 51 21 55 89 71 89 87 73 15 89 71 89 83 25 67 45 87 29 99 13 19 73 35 69 83 89 99 89 87 73 51 69 63 33 51 73 19 73 87 97 19 73 71 93 51 89 55 73 91 73 55 33 51 69 35 89 79 85 32 86 84 86 48 66 12 22 16 66 20 70 68 78 68 86 52 82 84 90 12 70 48 70 12 86 8 86 68 98 100 86 12 34 12 66 68 70 16 50 68 34 84 86 48 86 52 86 44 66 40 54 100 54 52 70 80 70 80 90 76 54 48 70 12 50 76 54 52 54 68 58 96 70 76 54 76 18 60 54 56 54 96 18 92 54 72 2 60 90 16 18 80 38 8 54 48 26 76 86 20 38 96 54 80 34 96 74 76 38 80 2 72 90 96 98 96 38 96 42 96 86 96 46 80 6 96 94 96 62 80 54 96 98 80 38 80 94 80 94 80 50 44 38 80 42 96 58 56 94 76 6 100 78 80 6 80 78 80 74 80 42 28 98 80 2 28 46 28 78 28 42 28 82 64 82 28 62 88 98 64 86 100 22 100 10 64 93 3 93 99 57 95 93 3 57 95 93 11 5 63 93 23 93 31 93 83 93 39 93 79 93 99 77 95 93 11 93 63 21 67 93 99 77 83 41 83 93 99 41 47 93 99 41 31 41 91 77 43 93 99 77 31 41 87 41 99 97 71 97 47 25 99 81 99 93 99 21 99 21 35 61 83 45 63 45 83 65 83 69 99 85 67 41 83 77 83 41 83 29 83 41 83 29 99 77 83 73 67 21 67 5 83 33 67 45 83 97 67 41 91 89 31 13 15 57 87 73 67 89 31 97 35 77 15 25 55 89 87 89 87 97 91 73 15 33 51 73 87 73 71 89 83 73 15 89 51 73 91 81 51 73 15 85 19 81 75 73 55 49 51 97 35 73 75 89 91 73 91 37 35 73 83 49 71 9 35 73 71 73 71 61 71 93 84 70 92 86 88 90 88 70 84 98 12 70 48 86 52 94 92 86 12 94 88 86 84 70 48 70 60 50 48 74 12 70 12 26 12 86 48 54 12 70 60 86 32 86 12 62 100 86 48 86 92 70 100 54 48 70 16 86 52 74 68 70 84 74 84 50 88 94 92 18 60 34 72 90 20 90 60 54 92 54 64 54 68 54 60 54 12 54 96 54 40 38 68 54 76 54 40 38 60 38 68 22 80 38 44 42 60 2 96 38 96 54 88 10 80 26 96 38 96 94 96 70 96 74 96 58 96 94 96 86 80 38 96 58 96 74 96 94 80 74 96 42 80 38 80 34 60 74 64 70 64 82 44 58 36 98 28 34 96 42 8 70 28 58 28 46 28 98 28 98 80 58 28 54 28 90 52 62 64 90 80 98 100 22 32 58 96 77 95 93 63 93 47 93 95 93 63 5 99 93 99 93 99 77 63 93 99 93 99 93 75 93 47 93 39 77 59 93 23 93 79 93 63 93 79 77 83 41 95 97 99 93 23 41 79 93 47 41 79 77 75 9 99 77 27 25 99 41 95 25 99 97 99 25 83 41 83 45 63 77 99 61 95 69 91 9 91 25 99 93 83 97 99 81 83 25 27 93 63 81 67 77 99 69 83 13 83 49 31 97 83 81 67 29 67 41 67 85 67 1 67 49 67 89 67 73 15 61 83 77 67 73 67 57 51 73 87 73 51 97 15 49 83 89 67 73 67 89 15 89 51 89 67 93 87 13 19 73 31 89 83 45 15 73 87 73 95 69 87 73 11 73 67 89 55 97 67 85 67 13 71 53 35 73 55 73 87 97 67 49 63 37 79 97 84 38 84 86 48 86 80 42 60 54 84 86 100 98 60 66 96 98 12 90 48 50 12 94 68 50 68 66 84 66 12 42 12 46 48 90 48 86 56 86 68 70 48 38 48 90 92 70 96 70 68 70 8 50 100 90 16 70 44 54 92 70 12 34 84 90 92 86 20 54 92 90 64 54 92 54 32 54 92 54 96 54 96 54 96 38 44 50 64 74 40 54 20 18 4 70 92 38 60 94 44 86 96 94 76 34 96 38 44 2 80 14 96 90 96 18 96 98 96 58 96 82 96 62 96 58 76 26 44 98 64 74 76 62 96 26 80 82 80 74 80 78 28 98 64 82 80 18 80 70 64 82 44 6 96 54 44 82 28 46 64 82 76 38 28 14 60 78 80 42 64 98 28 58 96 82 96 46 28 30 60 74 64 90 64 74 28 93 71 21 83 93 63 77 79 77 79 93 67 93 87 93 43 93 99 93 79 93 99 93 63 93 95 77 79 93 99 93 75 57 95 77 99 93 99 93 83 41 99 41 27 77 23 41 99 61 99 97 79 25 99 93 23 41 99 77 99 41 99 61 99 25 39 61 99 21 83 81 99 9 91 57 63 25 83 93 83 61 83 65 83 61 83 9 83 81 99 61 83 77 67 17 83 97 71 81 83 57 83 45 27 33 67 81 7 85 67 45 67 49 83 5 67 89 67 49 51 33 83 89 15 93 67 49 99 41 51 77 35 73 87 85 15 85 51 73 87 61 87 89 87 65 71 65 67 93 35 73 51 53 87 53 71 89 87 61 35 89 67 29 51 73 99 97 51 89 11 85 51 33 19 73 43 73 75 33 19 61 87 81 31 89 87 89 84 78 84 86 84 86 32 66 84 86 48 86 24 90 84 86 84 70 84 66 52 70 68 86 84 14 12 86 92 54 48 70 48 58 12 66 12 86 92 86 52 86 96 86 12 74 68 54 40 70 16 74 12 86 76 86 32 50 48 18 68 90 68 70 40 54 36 54 92 86 92 90 84 54 84 54 92 70 84 58 52 94 60 54 40 54 92 58 92 54 76 50 96 54 96 38 76 74 96 38 76 38 36 54 96 90 96 38 92 74 96 78 96 6 96 94 96 90 96 94 96 54 96 6 80 22 80 46 80 2 96 38 100 42 76 94 80 38 80 82 80 26 100 58 80 38 80 42 80 26 60 78 28 86 64 66 100 58 28 58 28 82 84 90 28 98 28 62 8 10 64 98 80 46 28 22 100 62 92 42 40 82 28 82 64 26 64 77 83 57 59 97 83 93 71 93 51 93 87 93 91 93 79 93 83 93 79 93 79 93 99 77 67 93 95 93 3 9 83 93 11 77 79 93 47 77 79 41 99 77 99 41 83 25 79 61 83 41 95 93 99 41 99 77 63 41 87 97 83 25 83 25 63 25 11 25 59 97 95 41 99 25 79 9 31 57 83 9 99 45 83 25 51 97 83 97 67 9 31 81 99 25 99 65 67 9 67 85 83 29 67 13 87 25 83 85 67 61 83 65 67 85 15 97 31 41 51 5 67 29 67 77 67 65 35 9 51 73 55 89 87 65 51 73 19 73 71 65 87 73 31 65 35 89 83 9 51 45 51 17 47 57 35 89 35 97 35 85 19 33 91 33 95 97 47 89 55 73 19 89 51 73 55 89 55 73 31 85 99 89 91 73 87 69 84 86 88 86 40 66 48 70 72 78 60 66 48 86 84 74 92 14 96 90 12 46 12 86 84 66 48 70 48 86 84 86 12 22 12 46 32 98 12 70 12 86 32 98 32 70 32 78 48 70 32 38 84 74 60 90 76 70 84 54 96 18 88 90 24 86 76 70 68 54 24 54 16 94 68 90 96 18 84 90 16 38 44 54 68 90 64 38 96 90 52 38 44 62 92 90 80 38 60 38 68 90 44 74 92 34 76 90 96 74 92 2 96 38 96 6 96 38 96 22 96 58 96 22 96 94 88 22 96 6 80 26 80 94 80 74 80 78 64 94 80 26 80 46 80 98 80 22 64 90 28 42 60 74 100 58 64 74 80 58 100 54 64 70 28 58 28 42 100 82 28 58 28 98 28 54 28 98 28 66 100 26 8 6 100 98 60 97 59 93 95 93 63 93 7 93 43 93 23 77 3 93 67 93 67 93 79 93 63 93 87 93 99 93 95 93 63 93 31 77 63 77 99 77 43 93 99 77 99 93 59 93 63 97 99 77 99 77 83 5 83 61 63 25 63 61 3 25 91 25 67 25 99 77 99 25 67 25 67 9 99 25 31 25 83 61 95 9 51 29 71 57 63 61 59 25 15 89 15 77 51 97 67 77 67 73 67 9 31 37 83 9 67 93 31 77 67 81 67 69 51 85 83 89 67 97 55 73 71 93 23 93 15 89 51 73 51 29 87 21 51 77 79 53 51 97 51 73 87 97 71 85 35 89 51 89 35 73 51 1 35 93 83 5 35 53 51 85 71 57 55 89 71 73 91 89 87 89 35 65 31 77 51 89 27 49 35 69 71 97 91 73 19 69 76 98 64 82 48 70 84 50 68 38 48 70 68 74 32 58 40 70 48 46 84 66 12 86 96 38 48 34 32 66 48 54 12 90 92 98 12 90 64 86 48 86 96 26 32 42 40 62 80 94 92 38 48 54 100 22 44 70 48 90 56 70 80 74 92 90 80 54 80 54 60 74 92 90 84 90 72 82 68 38 52 54 32 54 96 54 28 50 68 74 100 74 64 38 88 38 88 34 80 94 92 90 96 38 76 42 96 78 64 58 92 74 84 54 96 94 76 38 80 78 80 58 96 6 80 22 80 42 80 58 96 10 100 66 96 62 80 42 96 78 80 22 96 98 80 90 44 58 64 42 80 82 96 82 44 94 64 62 100 90 28 22 64 78 80 34 88 26 68 26 68 10 64 50 100 78 40 78 60 6 100 74 100 94 100 46 100 93 75 93 83 93 27 93 87 93 99 41 99 93 83 93 43 93 83 93 67 61 23 69 95 93 63 93 87 77 75 77 79 93 35 77 47 77 75 77 95 77 71 93 99 93 95 41 99 57 99 41 3 77 83 41 99 41 79 25 23 25 99 61 99 25 99 25 63 25 31 41 83 61 87 25 83 81 67 97 63 1 99 65 99 9 83 25 99 49 59 93 31 61 67 97 67 77 83 65 83 9 99 45 67 9 83 69 71 41 67 81 67 81 47 97 31 81 67 77 51 53 71 25 51 9 71 69 51 53 51 45 67 33 51 29 51 45 51 53 51 73 51 69 51 81 67 33 35 81 51 53 63 33 35 81 51 85 55 53 55 89 35 73 19 73 99 77 19 73 67 89 83 73 71 57 87 93 83 93 11 73 55 45 35 25 79 29 84 6 92 66 48 50 84 70 76 78 12 66 48 82 84 86 84 70 88 46 12 50 48 86 72 38 12 86 36 14 52 86 32 2 32 66 12 46 48 70 76 54 48 78 80 70 84 70 12 90 12 86 60 58 68 74 100 70 80 66 52 70 52 90 88 90 80 54 68 90 32 98 72 90 96 90 72 70 32 70 84 38 96 58 32 38 36 54 60 78 80 54 68 22 80 54 52 74 48 90 92 54 64 74 52 90 60 38 92 74 84 74 84 62 64 22 96 22 100 62 60 78 96 90 44 62 96 34 80 50 80 98 80 22 80 78 88 98 80 86 80 74 64 26 80 98 80 94 44 78 100 94 64 38 64 94 64 62 64 58 64 62 64 78 64 34 100 38 100 94 100 50 80 66 44 98 60 90 100 26 52 66 100 98 80 98 64 93 67 81 71 93 79 57 59 93 3 61 83 57 87 93 39 93 75 77 75 93 59 93 79 93 75 93 7 93 99 97 3 77 7 93 99 61 83 77 67 41 99 77 83 41 75 93 67 81 83 41 59 41 99 77 79 57 99 25 79 93 83 25 83 25 99 25 47 45 83 45 99 77 99 41 83 45 99 97 47 97 99 9 99 9 87 93 99 97 83 9 83 9 87 45 67 97 67 29 71 81 67 13 31 69 67 29 51 89 87 25 67 29 67 29 87 49 51 9 51 49 51 89 67 81 51 29 51 69 51 73 51 45 51 81 87 73 51 53 51 89 87 69 91 45 35 73 35 89 19 53 19 37 55 65 55 97 35 73 19 85 91 1 83 53 19 73 91 69 43 73 19 89 87 41 55 37 55 65 87 69 19 29 83 37 55 73 68 86 88 26 60 70 16 62 48 66 92 90 88 86 96 86 48 54 48 22 12 86 48 78 96 86 48 70 84 66 72 70 48 74 68 34 68 34 68 98 84 86 12 66 16 90 32 86 76 90 84 90 88 90 92 90 72 90 32 86 48 50 88 90 92 54 16 54 92 54 52 54 44 90 16 90 12 90 100 54 76 58 16 54 44 2 96 38 80 94 92 74 44 74 96 38 100 22 96 38 80 54 100 38 20 74 76 78 80 2 76 94 60 2 80 18 96 22 100 22 76 70 96 74 80 58 100 70 100 22 96 82 60 58 100 26 100 98 80 10 80 46 80 74 64 14 52 90 80 58 96 82 100 98 64 82 64 78 64 98 64 10 64 70 72 94 64 94 64 82 28 62 24 46 64 10 76 78 64 98 100 54 100 82 64 62 64 93 95 93 59 57 71 93 67 93 95 93 47 93 79 81 55 93 39 93 79 93 79 93 75 93 59 93 83 81 91 77 63 77 99 77 83 77 75 77 83 77 99 77 79 77 79 77 83 61 35 77 83 61 99 77 99 45 99 21 3 77 99 41 99 93 83 25 99 77 83 81 87 89 99 45 47 45 27 97 83 97 59 25 87 61 43 89 87 9 75 61 67 29 35 29 67 45 87 93 19 61 51 93 99 61 67 25 67 93 87 9 51 65 67 85 51 49 67 77 87 61 67 25 91 41 51 45 51 77 83 9 87 85 35 73 51 37 71 41 87 81 67 81 47 65 35 69 35 73 87 69 35 73 55 41 99 61 71 73 47 65 55 49 99 73 35 65 19 41 15 33 51 29 35 93 55 73 91 73 87 85 51 81 67 41 63 73 88 90 84 90 88 66 16 86 48 86 48 86 48 6 84 98 12 86 84 30 88 86 84 94 48 70 48 26 80 70 52 86 48 34 12 90 48 82 92 78 48 70 32 94 84 90 12 70 72 90 100 58 68 90 44 86 88 54 84 34 32 82 100 54 100 90 68 90 76 90 84 90 88 90 52 54 8 90 96 54 16 54 80 74 96 58 96 98 28 70 92 94 88 90 80 74 60 22 80 38 76 38 60 38 100 58 96 94 100 54 64 94 96 58 72 2 24 6 60 42 96 22 56 2 88 74 80 50 80 74 100 22 80 70 80 38 80 94 64 98 80 58 64 58 80 90 64 6 64 34 80 14 64 46 64 98 44 78 100 26 64 94 64 82 28 2 100 58 100 94 64 46 64 82 100 14 28 82 28 42 96 94 100 86 100 62 100 81 99 77 95 93 95 93 87 61 95 77 47 93 15 77 75 61 99 93 63 93 3 93 99 93 79 93 39 93 91 93 3 77 55 77 23 77 63 77 59 77 63 77 27 69 55 77 75 77 99 93 83 25 99 61 75 61 83 61 51 77 95 97 99 97 99 77 79 25 83 61 51 33 83 81 83 77 87 45 51 9 79 9 51 25 71 65 79 45 47 25 99 29 83 61 83 45 95 45 71 45 51 9 67 13 91 45 67 57 87 81 67 9 35 81 87 53 51 93 67 29 71 13 67 93 51 29 87 81 51 85 51 97 51 65 91 73 51 73 71 53 35 73 35 77 55 73 67 65 35 29 35 29 55 81 51 37 35 97 99 29 35 73 35 25 67 53 35 73 35 29 19 89 19 49 55 85 99 73 87 13 63 33 19 25 99 73 84 94 48 78 56 70 68 94 84 86 92 90 48 86 48 70 84 66 76 86 48 70 84 94 48 86 84 86 48 90 60 14 48 90 12 66 12 54 64 70 48 86 68 54 68 90 56 98 16 86 88 90 12 86 88 90 68 54 56 58 32 90 96 70 88 54 32 90 68 90 52 74 32 90 76 90 100 74 16 90 80 74 64 74 68 74 92 38 100 38 60 90 16 74 92 74 96 22 76 74 96 90 76 22 96 62 60 38 80 90 76 50 60 94 64 22 100 22 20 22 64 26 80 74 80 58 100 42 76 94 96 58 100 22 100 58 80 98 80 82 80 50 80 58 100 98 64 6 64 78 64 78 100 42 52 98 64 6 64 26 100 26 64 74 80 58 44 62 96 10 44 78 72 90 44 82 64 82 64 70 28 62 44 10 64 62 100 25 3 93 95 93 95 1 39 93 95 93 3 49 99 97 3 93 35 77 99 97 23 93 39 97 43 93 59 93 43 77 79 93 79 25 75 77 95 57 99 77 99 77 99 77 59 93 95 77 83 97 91 61 99 93 99 77 75 61 63 61 95 25 15 61 51 61 83 25 79 45 83 45 63 97 67 97 83 9 99 25 99 9 83 49 83 9 67 45 83 9 83 9 27 9 71 9 27 29 67 97 67 61 87 85 67 45 71 97 87 45 67 33 71 93 31 13 99 45 87 89 83 45 51 13 51 45 51 97 87 97 87 53 51 77 71 45 51 65 91 9 87 49 35 25 63 89 91 37 35 49 35 93 19 65 83 73 83 89 87 97 55 93 87 89 7 33 71 85 19 81 35 77 19 89 91 61 31 89 35 89 35 73 55 81 19 73 24 94 44 90 88 34 32 86 88 30 52 90 76 86 48 62 84 98 48 74 48 86 84 18 48 78 48 70 48 90 68 34 48 98 48 94 88 86 88 38 84 74 48 38 32 70 32 14 4 90 12 98 16 90 92 70 68 38 84 90 72 90 100 90 84 54 88 90 32 90 56 74 100 90 32 90 76 90 92 82 52 74 84 18 16 74 100 38 100 74 16 38 32 38 52 74 100 78 100 42 80 58 32 38 16 58 96 74 100 70 24 22 28 58 80 22 100 54 60 22 64 22 88 58 28 22 44 98 96 70 100 58 100 10 96 6 80 6 96 6 80 22 96 98 96 86 80 90 100 26 64 10 64 58 100 58 64 78 100 74 64 70 64 54 64 58 40 46 80 78 100 82 100 26 28 62 64 94 64 42 100 90 60 70 80 10 92 57 67 93 71 93 83 77 83 25 59 93 99 77 67 93 39 57 43 41 59 93 99 93 79 93 83 77 39 93 87 57 79 77 47 77 3 81 99 77 99 77 3 77 99 61 23 77 67 61 67 77 95 93 59 41 47 45 87 73 51 61 7 25 11 45 83 93 75 97 67 25 31 61 99 61 83 61 59 9 99 61 43 45 59 9 99 61 91 9 11 45 75 65 67 9 67 45 67 29 67 81 15 65 87 89 87 25 83 73 51 65 87 69 67 29 87 25 51 85 71 49 51 13 87 61 51 81 71 93 51 37 87 81 87 25 51 81 51 97 35 97 67 37 67 85 35 57 19 89 35 61 71 89 87 89 35 65 71 89 15 89 19 89 19 89 87 81 91 97 67 49 87 37 87 73 83 37 19 85 91 77 71 73 19 73 19 81 68 70 48 86 48 86 84 82 16 66 48 90 48 90 48 86 84 58 68 90 84 90 12 70 84 38 48 34 48 66 48 86 48 90 32 86 48 86 32 86 84 46 44 34 32 74 68 90 68 86 76 54 32 34 48 18 92 54 84 86 96 90 96 90 16 86 88 90 16 90 80 90 80 90 100 90 96 90 80 74 88 74 84 74 80 74 92 74 64 74 16 74 92 54 64 38 60 54 36 74 76 58 100 94 100 74 80 42 100 94 100 58 80 58 96 22 80 74 80 22 96 22 96 58 100 94 100 38 44 98 64 6 64 78 100 94 96 54 100 6 8 78 100 42 64 58 100 54 100 66 80 74 64 78 28 6 100 98 100 46 64 98 64 90 28 34 28 78 64 78 100 6 64 26 64 62 96 94 64 26 100 82 28 78 80 98 64 29 75 93 3 93 99 93 75 93 83 97 23 93 63 93 79 77 91 57 83 97 23 17 79 25 3 77 99 93 87 93 79 77 75 61 3 21 71 77 63 77 79 77 75 97 59 93 95 61 51 97 75 57 95 61 27 61 83 61 39 61 47 25 99 77 99 61 63 93 67 77 35 97 35 45 99 45 83 81 79 45 31 97 67 9 67 89 99 45 99 65 67 45 83 81 51 81 63 61 67 57 43 9 67 45 87 97 67 97 87 65 83 13 87 29 71 93 87 41 87 85 51 73 71 29 87 9 87 89 87 13 87 89 71 89 51 89 35 45 91 49 7 61 35 69 35 5 35 25 35 33 71 69 91 89 35 45 19 73 63 33 87 89 35 37 35 73 55 73 19 97 71 65 55 89 87 85 19 9 55 73 87 41 35 41 11 69 84 18 84 98 32 94 48 18 84 34 72 90 48 90 84 66 44 86 84 98 48 46 48 66 48 94 84 70 48 50 48 42 48 86 48 86 48 38 84 74 12 86 68 58 32 94 32 66 80 86 48 74 32 74 100 74 88 90 32 90 84 54 32 90 76 90 52 50 92 74 72 90 64 90 80 90 20 90 20 50 44 74 16 74 84 98 80 38 36 58 68 74 100 74 80 74 92 94 40 78 32 90 80 74 80 74 32 94 68 58 28 54 76 22 96 74 72 54 76 58 80 22 96 94 36 22 80 6 96 78 80 6 80 42 100 94 100 94 100 6 60 98 100 26 76 90 100 82 100 82 48 6 100 6 64 90 100 42 100 26 64 62 64 46 100 26 64 98 64 62 64 26 100 26 64 10 100 70 80 94 80 42 64 26 100 42 64 97 39 29 75 93 95 97 99 93 51 77 87 61 79 93 79 93 3 93 99 93 83 77 79 81 23 93 87 77 7 33 59 57 43 77 3 45 75 77 79 97 79 97 83 77 47 97 3 77 3 77 75 57 87 61 87 97 67 61 67 41 99 25 79 61 31 81 87 61 79 61 67 45 91 25 87 45 99 45 63 45 99 97 63 41 63 9 43 9 83 85 71 45 91 33 51 97 67 45 67 29 83 45 83 13 99 29 87 89 71 89 87 89 87 89 51 29 67 13 67 37 87 65 87 49 87 33 87 41 51 93 51 73 87 97 91 49 51 29 51 85 35 89 35 73 87 1 35 49 47 61 19 25 35 29 51 81 35 85 35 53 59 49 35 65 19 73 15 93 55 29 19 81 71 89 19 61 19 97 19 53 35 73 91 69 71 73 48 98 84 86 84 86 48 74 84 82 48 14 92 86 84 90 84 30 84 78 48 86 84 90 48 98 84 94 48 86 48 54 96 90 68 62 76 38 68 86 76 54 32 86 48 70 68 70 84 54 32 94 84 70 96 54 84 54 52 74 16 90 52 54 72 74 52 82 12 90 52 90 52 90 64 70 80 90 16 74 32 90 72 74 84 90 80 74 76 74 88 74 100 74 24 74 32 34 20 90 96 74 64 58 100 6 52 22 96 22 96 22 96 22 96 42 80 94 96 78 92 22 44 58 96 58 88 22 64 74 100 66 64 58 64 78 88 86 100 22 100 90 64 6 84 10 100 46 80 74 80 26 100 58 64 78 100 70 64 22 64 62 64 98 100 98 96 78 64 98 100 62 100 26 64 26 72 38 100 78 80 46 100 22 96 26 100 93 75 61 39 77 79 61 91 93 99 77 3 93 27 21 15 93 95 93 95 97 75 93 59 93 71 93 99 97 75 93 79 97 99 97 39 93 83 77 63 97 3 97 83 61 39 81 39 93 39 61 3 77 83 61 99 61 47 61 79 61 83 97 19 61 63 97 67 97 83 45 31 41 83 93 7 13 31 45 87 61 83 97 87 45 7 97 27 85 99 45 3 45 83 45 51 45 99 97 67 9 83 97 99 65 87 57 67 49 87 65 99 13 87 9 67 81 87 97 87 97 87 89 87 77 87 81 87 97 87 17 87 65 35 85 51 29 71 33 51 57 55 45 35 33 51 13 71 69 19 89 35 29 55 73 19 57 35 77 95 65 71 13 19 65 71 89 19 53 55 73 55 89 87 85 19 97 19 73 87 73 91 77 19 89 99 89 48 86 84 66 52 10 68 50 20 86 48 82 48 30 84 66 84 86 84 6 48 90 84 18 48 26 48 94 68 66 16 98 48 70 84 86 48 90 32 58 48 94 100 94 48 38 48 70 32 90 68 90 32 74 32 58 32 74 84 90 20 54 52 90 52 94 16 90 88 90 68 90 84 74 60 74 40 38 100 90 92 58 16 74 32 90 60 70 16 74 60 74 60 74 96 74 20 74 100 10 80 74 48 74 96 58 96 22 76 22 96 58 8 42 8 6 96 98 96 74 88 22 64 78 64 94 96 58 100 6 64 6 80 78 100 74 80 6 100 50 44 78 80 26 100 78 100 98 100 58 100 42 100 6 100 6 100 94 60 98 64 34 100 6 76 82 80 58 100 98 100 90 64 74 100 90 100 6 76 10 80 42 80 98 100 26 64 97 79 81 75 93 59 73 43 93 75 21 3 97 39 61 91 81 99 77 3 25 23 93 3 41 99 77 63 93 39 77 39 77 95 93 47 77 87 77 3 97 3 57 23 77 79 97 39 97 3 61 87 61 79 97 67 61 59 97 47 45 75 61 7 61 83 45 99 61 55 61 35 77 3 45 99 5 23 65 11 61 99 97 87 45 39 97 59 89 51 25 51 9 83 65 67 85 99 85 83 65 87 81 43 81 51 89 87 81 87 97 67 45 59 81 87 65 91 89 67 29 87 89 87 25 51 65 39 97 87 89 87 57 87 49 47 85 35 89 71 93 71 37 35 65 35 97 35 97 31 29 71 49 35 81 35 89 71 33 35 81 55 69 91 97 19 53 19 97 19 97 91 97 35 73 71 73 91 85 91 97 91 69 19 97 71 5 48 94 84 66 84 70 84 66 84 54 48 66 84 74 68 70 76 46 52 70 48 42 68 90 48 50 12 70 84 50 84 86 84 54 32 38 68 70 68 86 68 74 88 90 84 86 48 94 32 90 88 82 16 90 68 38 84 74 88 38 12 70 56 70 80 74 88 90 16 54 52 90 52 74 36 90 80 74 72 38 68 46 84 74 84 90 64 86 32 74 72 74 64 74 64 74 96 94 68 2 96 74 96 74 64 78 88 74 96 74 60 58 44 74 96 98 88 78 20 22 92 58 80 82 100 98 64 42 80 42 100 82 100 6 20 62 100 26 44 34 100 98 100 78 100 98 96 46 100 42 100 98 100 62 96 62 100 94 100 78 100 26 100 22 100 98 92 94 64 46 100 62 60 62 100 10 100 98 92 46 28 26 80 98 60 94 44 9 55 93 67 93 3 97 59 93 3 65 59 93 55 93 99 93 71 81 3 93 59 97 39 93 3 57 31 97 3 61 79 97 3 77 87 97 99 77 3 97 83 61 39 97 39 97 71 61 91 77 99 97 79 61 3 97 75 61 67 61 3 81 39 61 95 61 35 97 99 61 99 45 99 85 87 29 67 97 67 45 71 81 91 77 67 93 83 97 55 45 47 77 83 93 87 81 35 93 11 65 67 61 71 97 67 33 91 97 91 9 87 21 87 13 99 13 71 13 87 57 87 81 67 13 87 85 87 33 35 13 31 97 71 13 35 45 71 33 15 45 87 97 87 45 71 9 71 73 71 21 71 69 71 85 83 65 51 13 67 85 71 65 87 93 19 45 19 29 55 73 19 93 11 37 91 65 55 77 71 53 19 73 91 81 55 9 84 38 84 42 84 94 88 90 48 58 84 50 84 66 48 74 84 90 52 50 84 42 12 70 48 94 68 98 48 70 48 18 84 70 32 70 84 82 68 70 84 38 32 74 32 46 32 62 72 90 32 90 84 86 32 18 32 86 48 62 16 74 72 74 16 90 100 90 52 6 44 74 80 42 96 78 36 74 16 74 16 74 76 74 96 74 96 38 80 94 64 74 52 70 68 74 28 74 96 74 76 74 100 58 64 62 44 2 76 58 68 58 40 58 80 62 68 58 96 78 28 58 80 98 92 42 100 6 100 18 32 6 100 6 64 6 100 22 100 42 64 6 100 62 100 10 80 58 100 74 100 82 100 18 100 98 100 58 64 94 100 98 100 98 100 42 100 46 100 78 100 82 44 94 96 98 100 82 64 42 96 26 92 18 76 10 80 97 23 85 27 57 75 57 95 93 79 97 99 5 39 21 99 57 75 97 3 29 39 85 39 93 59 77 83 93 3 9 87 97 79 97 3 97 99 77 75 97 3 81 3 97 67 97 79 61 3 97 75 77 87 97 87 97 67 97 23 61 63 61 23 97 99 61 11 45 51 81 67 77 63 97 63 13 43 45 87 97 91 45 59 81 3 81 67 45 87 69 79 81 67 33 91 65 87 81 79 25 87 85 79 53 87 65 87 45 87 25 87 65 35 13 87 25 87 33 87 97 87 93 95 13 87 29 71 69 87 89 87 33 83 97 87 81 35 29 99 9 71 57 71 81 71 81 55 29 71 13 35 73 71 93 71 29 67 65 71 69 71 33 19 85 71 69 19 69 19 81 55 33 19 85 19 89 91 37 51 81 51 73 91 89 71 73 48 54 48 10 84 38 72 86 84 66 48 54 48 78 100 94 48 86 68 86 84 90 84 74 84 98 84 70 84 66 68 90 84 90 68 94 68 22 84 82 68 86 68 70 32 90 68 90 68 94 32 78 84 90 32 90 36 90 72 90 52 70 16 90 16 74 16 94 80 90 20 58 96 98 36 74 16 90 60 74 76 74 88 74 16 58 68 90 52 34 80 74 96 74 76 74 96 58 92 74 100 94 96 58 96 22 92 94 100 42 80 58 100 58 28 58 96 94 100 82 80 58 100 94 16 58 68 58 64 62 80 58 100 6 100 6 100 78 64 58 100 6 64 42 100 42 100 26 100 90 100 94 100 94 64 90 100 10 100 70 100 62 44 42 100 98 100 10 100 42 100 78 80 94 64 98 80 78 64 98 64 98 76 82 88 94 64 93 63 93 95 33 75 93 39 93 75 57 99 77 59 61 59 77 99 93 39 93 75 97 23 97 3 81 3 77 39 41 99 93 67 57 75 97 39 93 3 77 7 97 23 41 99 77 39 25 39 61 3 97 23 97 75 61 87 45 83 61 99 97 99 29 3 97 83 61 99 45 91 61 59 81 83 97 35 45 47 9 31 45 71 69 87 93 87 97 23 97 31 77 87 33 43 9 43 57 83 81 79 5 87 29 75 33 67 97 51 37 87 69 87 65 87 65 87 13 51 69 51 49 71 81 87 41 71 13 71 89 87 97 71 29 71 85 91 29 87 13 71 81 71 85 71 17 35 77 55 73 83 69 71 97 71 69 55 69 71 65 15 81 71 97 35 33 71 13 19 73 19 89 91 77 35 85 55 13 55 13 71 73 47 73 87 89 32 46 84 66 48 86 56 54 52 94 52 34 72 70 84 74 84 54 84 90 48 90 84 74 84 98 84 98 48 86 96 58 84 86 84 70 48 86 88 58 32 50 68 70 32 22 32 94 32 86 84 74 48 90 84 58 32 90 68 94 16 94 68 74 68 90 32 94 16 74 100 74 4 74 72 90 100 38 88 90 16 90 32 74 76 90 68 94 52 74 20 74 64 58 88 74 72 78 96 58 52 94 96 94 68 78 92 58 96 58 100 78 16 58 96 74 24 58 80 58 96 98 100 58 36 58 100 6 28 94 80 6 80 6 100 6 100 6 80 6 80 18 100 26 100 90 100 26 100 42 100 22 100 98 100 42 100 6 100 26 100 98 80 6 100 42 100 10 100 26 100 62 64 38 60 26 100 82 32 46 96 46 64 70 100 94 4 61 79 93 99 93 99 25 75 97 43 93 23 5 43 61 71 57 79 97 3 9 95 85 95 93 39 81 59 77 3 97 3 97 3 77 59 97 3 21 59 97 63 49 99 97 23 97 23 97 3 97 7 77 99 97 3 97 3 97 99 81 75 97 23 61 79 97 67 45 43 13 7 81 35 45 51 57 87 81 87 45 67 85 79 29 91 57 83 81 39 9 99 65 31 97 71 29 83 29 83 65 87 85 83 29 87 85 87 29 87 73 87 25 71 85 19 93 51 45 87 85 87 37 87 97 67 81 87 61 55 97 35 33 55 89 71 69 71 33 71 69 71 49 91 29 71 17 87 65 55 73 35 89 59 65 19 13 35 85 71 45 55 73 91 69 87 69 91 69 55 65 19 65 19 37 19 89 99 65 51 61 55 81 55 69 55 45 48 70 68 70 88 74 84 50 84 66 84 54 84 94 84 74 84 74 88 86 84 90 84 58 84 98 84 86 84 90 80 98 84 90 20 82 32 74 92 22 84 26 32 90 32 90 32 90 52 10 100 90 32 42 68 70 88 94 52 54 16 94 16 78 16 90 16 90 88 94 16 78 48 38 96 94 84 62 96 54 100 54 72 54 36 58 60 94 16 62 80 94 48 78 56 58 56 38 64 74 60 78 76 74 100 58 60 58 100 58 100 58 84 82 16 42 100 58 100 42 96 74 100 42 60 78 76 94 68 22 100 42 80 70 64 6 64 78 80 26 100 26 76 94 64 46 100 94 80 58 100 94 100 82 100 78 100 26 64 78 100 58 100 78 80 82 96 42 100 78 64 74 100 82 32 78 64 78 100 26 100 42 100 62 100 98 84 61 75 97 75 41 39 97 3 65 75 1 23 57 63 77 39 57 75 81 3 77 39 61 3 97 87 97 23 97 75 97 87 69 79 45 3 85 3 77 3 97 75 61 95 93 39 97 27 77 99 97 95 61 75 97 23 97 63 45 99 97 55 77 59 97 39 81 83 97 67 97 99 61 7 81 35 45 67 45 7 9 71 81 71 61 87 45 67 29 55 41 99 97 19 29 35 45 99 65 87 97 51 29 71 29 87 29 31 69 55 29 51 29 83 57 87 45 87 45 87 65 87 13 87 61 87 49 51 33 35 89 79 13 15 65 87 65 71 81 71 65 51 37 87 69 71 33 71 77 31 73 43 49 35 69 55 85 19 93 55 85 71 45 19 9 91 81 19 85 55 25 91 89 55 69 91 61 91 53 91 85 91 45 35 65 91 77 88 70 68 10 44 34 88 54 68 90 48 90 84 70 84 90 84 66 84 14 84 70 84 30 84 90 68 42 84 74 84 98 32 86 84 94 68 82 68 90 32 90 84 70 80 90 68 78 44 70 32 58 84 98 84 86 48 94 52 58 68 98 32 30 16 94 16 54 88 74 80 74 84 90 16 74 72 90 16 90 36 90 72 90 88 78 72 6 28 98 88 74 96 74 96 74 68 74 84 42 88 74 100 94 80 98 80 58 16 58 88 58 56 58 68 58 32 58 64 58 80 78 100 42 100 78 100 22 100 6 52 78 100 98 80 94 80 26 64 42 80 94 100 98 100 94 100 62 64 26 100 26 100 26 100 98 100 62 64 26 72 98 80 10 100 42 100 90 100 62 80 10 24 94 44 26 100 98 64 78 44 26 64 46 100 86 76 77 59 81 59 93 39 41 39 37 95 97 59 93 3 77 39 61 91 57 59 97 43 81 39 77 43 61 43 97 43 97 75 81 83 25 3 97 3 97 3 97 3 97 3 97 75 61 3 97 3 65 67 97 75 97 59 97 79 97 23 81 75 85 39 97 99 97 23 81 59 97 11 81 83 61 87 65 87 81 3 9 83 81 99 29 91 29 39 13 63 61 51 45 63 29 3 29 71 29 91 81 87 29 67 29 83 29 51 29 71 45 95 97 87 65 51 89 87 65 99 81 87 77 87 65 87 49 87 73 51 97 71 73 71 93 71 85 71 93 87 21 71 49 71 13 71 13 71 5 19 93 91 85 91 33 91 61 71 81 55 77 55 85 87 73 35 17 55 61 19 45 55 85 35 37 55 69 19 81 91 73 71 61 91 33 83 97 16 86 52 86 80 82 84 10 84 70 68 90 32 58 84 38 84 78 68 46 84 90 84 70 48 22 84 70 84 90 84 90 68 54 84 54 52 62 32 74 48 34 100 50 68 38 68 90 68 74 80 34 68 46 96 54 52 70 88 74 84 74 88 46 52 42 16 66 16 74 52 14 68 90 16 22 100 90 16 78 16 90 68 58 32 42 88 74 76 94 80 74 16 82 68 74 24 22 36 78 72 98 20 94 20 58 100 94 72 38 32 74 56 94 44 94 36 94 96 58 80 58 96 46 92 78 80 42 100 42 64 26 64 94 36 78 40 42 100 42 100 26 100 26 100 26 100 78 100 94 100 62 76 42 100 62 100 98 60 82 100 62 100 62 80 98 64 98 100 46 64 78 100 82 100 26 100 82 100 46 8 42 80 58 28 98 100 97 59 97 39 77 99 97 83 97 95 77 75 81 3 97 23 57 83 93 95 93 51 97 39 77 83 61 99 93 75 97 39 81 3 85 3 1 3 97 71 41 3 97 3 97 35 97 3 97 27 97 75 97 99 97 59 97 63 97 3 97 75 97 35 81 43 81 67 45 71 45 43 97 3 97 51 45 67 81 23 69 7 45 75 13 83 81 79 97 99 97 75 97 87 29 47 97 99 29 87 29 99 85 91 29 35 29 67 29 87 97 51 53 87 69 35 13 91 85 71 49 87 41 87 13 87 65 71 97 87 89 31 97 71 65 71 57 71 97 55 49 55 85 71 13 71 61 91 65 71 57 55 65 91 85 71 65 55 17 55 29 55 85 71 81 55 73 55 69 55 89 55 69 55 97 71 77 91 77 19 85 55 69 87 93 19 69 84 90 84 74 32 86 32 98 84 70 84 98 84 74 84 82 84 90 84 42 84 86 84 90 84 26 84 90 68 98 68 38 84 94 84 74 48 66 68 94 84 90 68 90 68 94 68 74 92 38 16 94 68 46 100 74 96 34 16 98 84 90 16 90 16 50 16 58 16 70 36 74 16 54 36 78 80 58 92 94 36 58 16 94 68 74 96 74 36 94 88 42 88 54 72 30 92 82 64 58 36 42 80 94 40 74 88 78 36 94 80 58 100 58 28 58 80 58 68 94 16 42 44 70 64 90 60 42 36 94 80 78 96 94 100 42 100 22 100 42 60 6 80 50 100 98 100 10 64 6 56 74 100 38 72 26 44 66 80 78 52 54 100 94 100 46 100 10 100 74 96 94 28 98 76 98 44 6 100 82 80 22 92 82 80 42 64 45 55 93 75 93 75 93 63 97 63 93 23 93 39 93 59 61 39 61 3 93 39 77 39 81 51 61 39 77 3 97 3 93 3 97 75 77 75 77 3 97 3 97 99 97 39 97 3 97 19 97 63 73 83 97 75 85 23 97 99 97 59 97 87 81 75 97 55 81 87 97 23 97 23 81 63 81 67 81 59 81 59 81 63 45 31 81 71 81 47 45 83 29 43 49 31 29 87 29 71 61 79 81 87 29 59 29 39 29 51 69 67 45 51 81 87 61 91 29 91 13 87 85 71 13 71 29 87 81 71 13 51 33 87 93 71 85 91 49 71 49 71 65 71 65 71 29 71 65 55 69 55 85 71 45 47 97 87 41 55 73 55 77 91 81 71 81 55 41 91 41 55 17 35 65 55 69 91 93 55 73 55 37 55 69 71 49 84 86 32 98 48 62 68 78 68 98 84 50 84 90 84 66 68 86 84 42 84 86 84 90 84 98 84 66 68 58 84 86 32 10 68 58 84 74 68 98 68 94 68 74 32 78 32 54 68 98 68 6 16 82 84 46 68 82 68 46 92 98 16 86 88 22 20 54 52 54 84 94 32 94 52 94 68 74 92 94 52 98 84 74 16 42 84 46 80 74 16 58 56 58 52 94 44 94 56 94 84 78 36 94 76 94 80 74 76 78 100 42 96 6 100 6 20 42 80 58 16 78 80 42 100 46 60 6 80 6 100 42 100 42 100 42 60 62 64 62 100 22 100 78 76 58 80 58 60 42 20 78 64 58 48 46 68 26 8 74 64 94 100 82 100 26 100 46 100 10 92 26 64 46 64 10 100 58 100 82 60 94 28 46 100 78 60 97 79 93 39 69 83 97 59 93 27 77 95 61 75 97 11 85 75 93 63 93 75 81 39 97 99 61 23 97 59 97 15 85 47 25 39 97 3 97 75 81 75 97 23 97 75 97 99 97 23 81 63 97 43 81 39 97 23 97 39 49 7 97 7 81 75 81 23 97 19 81 39 81 95 81 27 81 23 81 3 45 63 81 95 69 87 29 91 69 67 65 83 65 87 29 83 65 59 65 27 9 39 29 55 97 71 65 87 65 91 9 87 81 83 65 35 49 71 13 87 69 87 25 87 13 87 49 71 49 71 13 71 81 71 85 71 13 71 73 55 13 71 49 71 49 71 33 55 65 55 93 91 61 91 49 95 85 91 85 55 65 55 85 55 81 91 33 55 61 55 77 71 77 19 65 55 65 55 29 71 65 71 73 35 37 91 25 32 50 84 34 84 10 84 94 84 58 84 78 84 94 84 58 84 78 84 78 68 94 84 86 84 94 68 86 52 86 84 54 68 30 88 38 76 46 68 74 68 86 68 46 68 74 12 90 68 82 68 94 68 58 88 58 52 50 52 94 88 90 16 46 72 90 68 46 52 74 52 94 92 94 52 58 16 62 88 58 84 62 52 94 52 94 72 18 60 94 92 82 64 94 96 98 88 58 88 82 80 22 96 94 100 58 20 54 76 94 100 94 96 58 48 58 100 94 80 94 84 58 36 94 80 94 76 98 16 78 80 78 100 94 92 42 80 42 100 26 100 98 64 62 80 98 80 98 100 26 100 26 92 62 64 82 100 6 100 42 100 26 100 78 32 78 64 10 52 74 44 94 80 82 100 94 28 46 64 10 44 94 100 46 100 10 4 93 75 69 75 93 95 93 99 97 75 57 75 77 71 9 75 1 75 61 39 85 75 93 39 97 79 93 3 97 15 93 39 93 39 77 39 77 39 97 23 97 3 97 39 97 7 97 87 97 35 97 75 97 59 97 87 97 27 57 95 97 39 97 3 81 75 65 99 89 79 81 23 81 47 45 47 97 59 25 55 81 87 81 83 29 7 65 71 77 75 41 43 65 75 29 7 29 87 29 99 29 59 65 15 29 67 65 51 13 87 49 7 89 87 13 87 97 71 13 83 69 79 13 87 89 55 13 71 93 71 13 51 85 51 33 55 9 67 49 71 69 71 33 87 77 71 89 51 37 55 97 55 81 51 69 55 53 55 33 91 29 71 49 55 49 55 49 55 73 55 69 31 65 19 93 55 21 19 93 55 17 87 85 55 33 55 69 84 90 20 86 72 98 84 66 84 86 84 90 44 94 72 54 64 66 84 90 84 94 84 86 76 90 84 98 84 58 32 86 88 94 16 94 96 38 68 70 68 30 68 90 68 58 68 14 68 30 68 78 88 74 16 70 68 74 68 54 80 46 52 78 52 42 88 74 52 86 52 46 36 46 96 54 88 42 56 94 68 94 52 94 84 18 36 94 88 94 28 98 16 94 68 58 100 94 36 94 60 42 96 94 36 94 44 94 96 94 96 94 96 22 52 94 40 42 28 62 80 78 80 78 84 42 100 42 92 94 56 98 100 42 80 78 100 78 100 62 100 42 64 78 28 26 4 26 64 26 80 62 100 26 100 74 100 82 100 62 100 58 100 78 100 94 80 10 100 94 96 26 96 82 36 66 60 82 100 26 100 62 100 30 28 26 92 93 79 93 79 97 39 93 83 61 43 41 3 65 83 81 39 81 59 97 67 65 75 41 3 25 63 93 39 57 39 77 75 97 39 77 83 97 39 61 3 85 39 5 95 97 23 97 39 97 59 77 15 97 23 97 99 97 79 97 7 81 7 61 39 81 39 93 23 81 83 81 15 93 7 97 83 81 55 65 51 81 87 81 3 81 35 65 43 21 51 49 83 29 91 61 91 29 83 65 67 65 87 61 15 65 55 77 55 49 87 49 91 49 35 81 91 49 71 49 87 13 55 65 79 13 71 77 83 49 91 65 71 85 91 61 71 77 71 69 71 65 55 33 91 81 71 93 51 49 71 69 55 89 67 29 55 29 91 13 55 97 91 49 55 97 55 37 55 45 71 81 91 9 19 33 55 1 71 9 15 37 71 49 91 73 91 85 84 34 84 50 84 74 52 74 84 74 32 98 12 30 84 70 48 34 84 70 84 62 84 46 92 78 84 50 52 18 84 90 68 42 84 78 96 46 88 94 68 30 100 70 68 70 84 90 68 6 68 90 68 78 52 90 68 38 32 78 52 38 68 90 52 98 52 78 16 6 4 94 52 98 52 38 68 74 92 46 56 78 40 94 88 90 88 94 84 94 20 94 84 94 96 94 20 78 36 94 72 94 36 74 48 94 88 94 96 94 100 78 36 94 56 58 100 94 20 94 64 42 100 78 100 6 88 42 60 26 100 62 100 78 100 78 72 62 76 26 100 10 64 42 100 26 100 78 100 98 64 26 100 26 100 90 100 26 28 26 80 26 100 26 100 86 28 62 100 94 80 82 100 78 100 10 100 46 64 10 100 54 100 98 80 82 100 21 79 41 99 97 75 93 39 33 59 93 75 97 39 21 39 97 39 77 15 93 39 41 39 41 3 97 75 81 39 93 39 57 87 97 3 81 99 97 3 65 39 97 95 45 39 97 23 97 23 9 23 97 39 97 75 81 75 49 23 97 7 81 23 81 51 97 39 81 67 81 23 61 27 13 7 81 67 81 3 49 75 81 87 65 67 65 55 61 55 29 71 65 59 65 87 85 71 65 75 65 67 29 83 29 87 65 71 65 55 57 55 49 43 13 35 13 71 85 87 49 71 41 91 13 71 85 71 13 47 65 71 49 71 29 87 45 87 85 71 33 91 13 71 33 91 69 71 49 91 73 91 13 83 69 55 97 55 89 55 69 55 85 55 57 91 13 91 17 43 77 91 33 55 93 19 89 91 85 71 41 91 93 35 37 91 85 20 98 84 90 84 78 48 94 68 82 12 98 32 82 84 58 84 82 68 70 68 86 84 50 68 74 32 66 68 2 68 38 68 82 16 46 68 70 72 14 68 74 68 70 68 66 52 82 84 90 88 58 72 86 52 30 68 2 52 94 52 78 52 70 52 94 52 70 72 42 52 58 16 90 84 74 60 74 32 74 72 94 96 94 100 98 96 74 56 94 72 46 88 94 92 94 72 94 20 94 20 94 8 94 96 94 32 94 100 78 36 42 20 94 64 78 8 58 32 98 100 42 92 78 72 58 80 42 16 58 96 78 100 6 16 98 100 42 100 42 80 26 64 26 100 86 28 62 64 26 4 26 72 26 100 26 100 82 100 26 100 78 100 10 100 26 100 82 100 94 64 62 64 46 96 82 72 98 100 50 100 10 64 82 44 82 100 57 7 81 75 5 39 97 39 77 39 69 75 89 75 85 75 93 39 61 87 41 75 97 39 25 39 81 39 77 39 93 39 97 75 97 99 61 59 77 23 97 63 61 39 97 39 93 3 33 23 97 7 93 87 29 23 81 75 81 3 45 23 97 3 81 79 81 7 81 63 97 79 81 79 81 59 81 83 77 87 45 71 97 43 65 51 61 91 65 83 69 91 49 91 97 67 65 55 65 87 49 35 33 87 29 43 81 7 81 99 65 67 13 87 13 87 13 91 65 87 85 15 13 43 13 7 93 51 85 95 69 67 65 71 69 91 65 91 85 87 69 87 97 71 45 71 65 91 69 71 65 55 45 91 97 91 85 91 85 71 85 55 49 55 65 91 61 55 17 55 65 19 65 55 29 55 33 19 33 91 89 91 89 55 73 55 69 36 94 84 30 84 74 84 50 84 90 84 94 64 90 32 90 84 86 32 94 12 98 92 78 84 78 84 82 84 78 68 94 68 82 52 90 84 58 52 74 48 90 84 98 68 26 68 98 52 86 52 18 68 78 24 38 52 78 88 98 52 74 52 78 84 38 52 74 52 98 68 90 56 90 36 90 64 90 68 74 72 94 56 74 80 94 100 74 44 58 84 74 88 94 72 94 88 94 52 58 36 94 60 94 40 94 96 94 76 94 72 94 40 94 20 78 68 90 88 94 84 78 80 78 80 78 80 78 96 42 68 74 100 94 68 26 100 26 92 78 100 26 96 78 40 78 76 78 100 26 100 26 100 26 100 62 100 98 80 26 64 74 100 78 100 94 64 98 100 78 100 82 100 78 96 62 64 82 16 98 100 98 28 62 80 58 72 49 71 93 39 57 87 41 23 89 39 57 43 61 59 93 3 97 75 97 39 61 23 81 39 61 39 61 39 25 39 97 39 81 75 97 39 57 23 81 75 97 39 57 83 97 23 81 23 97 7 97 23 13 63 97 23 49 43 45 59 9 75 65 99 81 7 93 7 81 59 81 99 85 7 81 31 81 75 81 71 65 19 45 71 65 3 29 59 65 79 65 87 65 47 65 83 65 71 65 87 65 87 13 87 29 67 13 87 13 91 13 47 81 79 49 67 97 3 69 55 13 87 85 47 13 55 45 71 85 71 65 55 25 71 33 83 69 71 33 91 69 83 65 71 49 71 81 91 85 91 81 55 13 91 13 55 73 91 93 87 93 99 89 55 85 55 69 91 85 91 77 55 45 71 85 91 49 91 33 83 49 19 81 91 33 91 85 68 70 48 30 84 58 88 54 52 66 84 90 84 54 84 30 92 86 84 90 68 30 68 70 84 82 68 86 68 70 56 90 68 82 68 66 68 86 68 98 68 30 52 46 12 18 52 42 52 90 36 74 24 26 52 90 16 90 68 46 88 90 52 26 52 46 52 74 52 90 52 74 52 22 36 46 72 6 16 94 72 58 52 98 72 94 32 78 36 58 68 94 72 6 88 74 56 94 72 94 52 94 56 94 76 94 20 94 80 94 64 78 92 98 36 94 100 94 100 46 88 78 76 78 100 90 96 78 100 78 16 78 80 58 88 26 64 98 100 46 4 62 80 26 100 82 100 26 100 26 68 26 100 42 100 62 100 46 100 46 100 98 100 10 64 10 44 98 64 10 96 62 64 26 100 82 28 46 64 10 60 62 100 78 100 70 96 81 39 97 59 77 39 57 75 45 3 61 75 97 79 93 75 37 75 77 39 21 75 69 15 49 39 97 39 97 47 97 39 97 75 97 39 69 59 97 59 97 75 97 79 93 3 61 23 81 75 97 51 81 39 65 43 97 75 61 23 97 51 81 59 81 95 45 59 81 23 25 59 45 99 81 75 65 83 81 23 65 23 81 23 65 75 49 59 41 23 65 23 49 51 65 35 65 71 65 91 97 83 29 87 45 83 65 39 13 59 81 87 49 91 13 71 49 99 49 55 49 43 29 91 13 91 97 67 69 99 29 91 97 91 85 91 49 71 49 91 85 55 65 91 61 91 13 51 13 91 81 55 49 91 69 91 49 91 85 91 49 91 65 91 17 55 33 71 33 91 69 87 45 91 13 91 97 91 57 91 73 91 65 91 69 91 33 68 30 84 78 84 70 84 94 56 30 92 38 84 90 84 94 68 90 84 74 84 90 68 78 96 98 52 90 68 78 56 58 84 90 64 94 68 94 68 94 68 58 84 54 68 82 88 90 68 94 88 34 52 90 52 14 52 94 52 38 52 94 88 22 52 94 52 94 52 86 52 42 72 58 84 78 52 94 36 98 88 70 36 94 72 42 36 90 20 34 72 42 80 94 36 98 72 94 56 94 20 78 36 98 36 6 56 94 16 74 20 42 36 94 96 94 80 78 4 62 68 78 96 78 100 78 96 78 92 78 72 26 28 62 76 94 88 62 92 62 100 78 60 62 80 26 100 22 64 26 56 74 64 62 100 26 64 98 100 62 100 82 96 78 56 46 20 70 16 10 64 10 52 66 64 62 64 98 80 82 80 82 80 26 88 98 100 77 47 49 75 81 59 85 39 85 87 61 75 97 71 61 87 61 75 69 39 93 75 93 3 97 39 97 75 93 39 13 39 97 39 97 23 97 7 97 75 93 39 65 23 97 63 97 59 45 23 97 23 93 7 97 39 85 7 41 39 81 43 97 59 97 23 29 43 85 31 97 47 81 71 45 71 81 23 81 7 65 75 97 83 85 91 65 67 65 35 65 87 65 55 65 75 9 31 17 43 65 67 65 91 49 63 85 47 65 95 65 23 85 99 57 75 81 91 33 67 69 91 77 71 61 7 13 87 49 87 89 55 85 91 45 91 85 43 93 19 85 71 33 55 97 91 81 91 29 71 13 91 61 91 85 71 33 91 73 91 65 91 33 91 93 71 69 55 97 91 69 91 69 55 77 91 73 91 29 91 73 55 69 91 69 35 89 96 58 84 70 68 90 84 94 92 30 84 58 72 90 24 30 88 98 88 98 48 98 48 58 52 98 68 30 76 90 84 82 64 90 68 6 72 82 68 74 48 90 88 26 36 66 52 18 88 90 16 90 52 78 52 94 52 50 68 26 52 90 52 82 52 54 52 94 52 94 52 42 52 78 20 66 20 62 52 90 100 58 52 74 72 78 36 94 80 94 72 94 88 94 72 82 92 78 20 58 92 94 36 94 96 46 100 94 36 94 20 58 80 26 56 94 48 78 20 78 76 78 88 78 64 78 28 78 36 78 100 78 100 58 92 78 88 78 48 98 76 26 100 26 100 26 80 26 100 82 80 46 44 6 100 94 36 26 4 62 56 98 100 10 96 62 68 98 100 10 100 74 96 82 84 10 80 62 100 62 32 62 52 62 64 90 80 97 75 81 3 57 75 41 7 81 59 97 75 77 75 97 39 41 39 81 75 81 75 93 75 97 39 93 75 85 39 97 39 97 75 81 83 97 23 97 75 77 23 81 79 93 23 97 39 97 95 49 7 97 23 97 51 97 43 81 23 97 87 77 23 81 59 81 23 65 99 45 3 61 55 81 59 81 43 61 7 81 87 65 87 49 7 81 95 81 75 65 63 65 83 65 87 65 23 81 43 65 87 85 55 45 99 65 51 13 31 85 71 65 51 49 55 13 55 49 67 49 91 85 71 65 71 69 55 85 71 65 91 85 87 65 91 85 87 45 87 9 87 33 55 41 71 93 91 69 91 17 91 33 91 69 91 85 91 69 91 93 91 77 91 17 91 45 91 13 71 49 91 85 55 77 91 85 91 85 91 9 55 9 91 53 91 17 84 82 84 86 84 86 72 90 88 94 84 98 88 78 80 78 84 42 88 6 88 46 88 30 88 74 84 66 68 90 52 70 64 90 72 66 84 90 84 98 72 90 88 74 20 62 72 30 88 98 100 10 52 82 52 78 52 78 68 26 52 58 52 74 52 42 36 94 36 74 88 50 88 78 96 86 52 94 88 94 56 82 36 94 52 78 52 94 72 42 40 58 36 98 88 42 20 94 40 94 60 94 56 94 20 94 56 98 96 82 20 94 92 62 96 78 68 78 12 62 4 78 20 78 72 98 68 78 28 42 88 26 100 82 72 78 80 62 32 98 100 78 80 26 100 98 100 10 28 62 52 78 100 26 96 26 96 98 4 62 100 26 88 82 76 10 100 82 28 46 100 10 96 62 24 10 60 46 64 82 44 98 100 98 64 82 100 77 39 93 75 93 27 97 99 81 7 89 39 81 75 97 39 21 75 97 75 97 59 25 75 65 39 45 39 93 91 97 39 93 39 97 59 65 39 97 39 69 23 97 59 65 51 29 23 97 59 97 7 97 39 97 23 81 7 61 23 85 87 65 43 9 27 65 59 81 23 81 83 81 7 81 43 13 87 97 83 81 71 65 83 49 91 65 43 65 11 77 55 49 19 65 43 65 67 97 71 65 43 65 87 85 7 85 67 45 83 49 31 85 23 65 91 49 87 13 51 49 55 81 91 49 99 13 71 89 91 61 91 9 71 85 71 73 91 69 99 69 47 89 71 45 91 85 71 13 91 73 91 49 91 69 91 69 91 85 71 65 91 65 91 69 91 77 91 85 91 37 55 33 55 69 91 57 63 65 71 97 91 97 47 69 91 1 84 74 36 42 52 26 84 82 16 98 88 90 56 30 68 98 52 54 84 94 68 82 84 46 68 46 68 62 68 86 68 26 68 42 40 74 88 90 68 94 36 90 72 90 16 86 96 90 68 6 52 90 88 94 88 30 72 90 68 62 88 98 88 74 68 98 96 58 100 78 52 58 88 74 56 94 36 94 88 26 52 90 88 90 4 54 88 98 88 94 20 82 40 42 36 54 56 94 88 98 20 94 88 78 80 74 88 74 56 94 20 78 4 46 36 78 56 94 36 78 80 78 16 78 100 78 88 78 100 98 72 78 100 46 60 98 56 62 76 62 68 94 64 98 32 42 100 62 100 98 28 26 100 78 100 26 64 98 72 82 76 46 64 78 100 46 56 10 100 10 100 10 100 46 100 10 100 10 100 10 80 98 96 62 44 58 64 33 75 77 71 93 39 69 75 77 99 81 43 61 75 93 39 45 75 97 75 97 75 49 39 97 75 9 75 49 75 97 39 41 75 97 75 97 23 77 75 65 67 93 23 97 23 77 23 85 23 97 23 69 23 97 23 61 43 97 59 65 7 49 67 85 67 69 83 81 87 81 39 97 43 85 7 57 7 65 7 85 87 97 87 65 83 65 87 29 67 65 87 65 87 49 7 21 83 65 83 69 19 49 91 45 91 29 95 49 71 81 67 49 91 49 91 49 35 85 71 85 91 81 99 69 75 49 35 17 91 29 71 65 19 33 87 85 91 13 91 33 91 33 91 29 91 93 91 69 91 33 55 49 91 21 91 49 91 69 91 69 91 17 91 21 19 33 91 89 91 93 91 85 91 77 91 45 99 85 47 85 31 81 91 85 55 65 100 74 68 30 16 90 8 90 84 86 84 98 52 82 68 70 48 38 84 90 68 98 28 30 84 26 68 50 84 42 32 94 68 10 84 42 44 10 52 90 68 90 68 70 88 58 32 50 52 90 36 70 68 94 32 98 68 58 88 90 88 94 60 86 72 82 88 78 52 26 52 94 88 62 36 94 88 62 100 98 72 58 80 90 36 94 88 98 36 6 88 98 20 94 52 94 56 46 4 62 72 94 36 26 20 94 76 6 52 78 100 94 96 98 72 98 56 94 72 98 36 78 72 98 28 78 68 62 72 98 44 62 72 78 64 78 100 98 84 62 88 78 96 62 52 62 64 78 100 26 8 98 100 62 100 82 100 78 100 82 64 46 64 10 100 46 88 10 32 10 100 62 76 82 100 46 96 6 64 10 100 82 52 74 88 82 100 65 59 97 75 85 7 97 59 89 39 93 75 45 75 77 75 49 75 93 75 97 75 65 75 93 75 81 75 41 75 61 75 81 75 25 23 97 75 93 75 81 23 29 23 5 23 97 87 81 23 97 23 57 43 93 59 81 23 1 59 49 7 81 7 69 47 65 59 81 7 65 91 65 23 85 7 29 7 81 39 85 35 29 87 85 75 65 59 65 67 65 91 85 99 65 23 61 19 65 67 69 51 81 87 49 91 33 7 49 79 29 71 49 7 49 91 41 55 45 87 77 71 45 91 41 91 33 91 49 71 33 55 33 55 49 87 85 67 89 87 9 91 49 55 61 71 13 35 85 55 77 91 61 91 45 91 85 91 65 71 85 91 49 91 69 71 49 91 73 91 69 91 69 55 69 91 49 55 69 55 17 71 73 55 33 71 65 84 50 84 26 40 86 84 30 84 30 84 66 68 98 76 74 16 34 84 30 68 38 68 30 36 62 88 90 48 70 84 78 56 38 88 94 32 98 88 86 88 58 88 22 88 90 88 54 88 6 88 74 88 38 88 58 32 62 88 58 52 90 36 38 88 54 52 78 88 94 16 94 68 94 88 98 36 42 52 94 36 58 20 78 36 62 36 70 68 26 20 90 20 58 52 78 52 26 88 42 52 42 88 98 20 78 72 78 52 66 28 78 100 22 20 94 72 78 72 78 100 62 84 98 4 98 20 62 56 78 96 78 4 78 4 78 68 42 12 62 44 62 56 98 72 46 44 62 44 78 88 46 88 62 28 62 100 62 56 10 100 46 28 10 100 10 100 10 44 10 100 46 100 10 8 62 64 10 56 46 100 98 16 82 64 46 72 41 99 97 75 77 75 81 39 65 99 97 75 85 75 97 75 93 59 81 75 57 75 49 59 45 75 81 75 45 59 93 75 93 75 97 75 81 59 77 59 45 75 29 23 97 59 45 23 61 23 81 23 97 23 97 59 65 23 93 23 89 59 97 43 65 7 97 51 61 7 93 75 81 91 65 27 89 99 69 47 77 87 85 91 97 35 85 79 81 91 45 87 65 35 65 91 85 43 65 91 65 91 85 87 85 87 85 99 49 55 49 51 49 87 49 71 49 47 49 91 49 71 85 87 97 87 9 63 49 91 85 91 85 87 85 91 97 91 33 91 17 99 85 91 49 55 85 55 33 43 17 91 61 91 69 87 65 91 69 91 45 91 69 91 33 91 73 55 17 91 85 55 69 67 49 91 13 19 89 67 33 47 49 91 97 95 69 84 74 40 54 48 90 68 30 84 22 68 30 92 42 72 98 52 30 84 66 68 94 68 82 84 94 84 14 32 30 84 30 88 90 32 62 68 30 84 94 48 94 88 54 88 74 84 62 52 90 36 58 88 74 88 42 88 78 16 70 88 98 88 82 52 74 52 30 88 94 88 78 36 42 52 98 72 66 52 14 92 94 20 82 20 42 60 78 52 94 36 78 36 22 60 94 56 78 20 94 20 78 88 14 56 54 36 98 56 58 20 78 36 78 60 78 64 94 20 98 20 82 56 86 20 94 4 78 100 62 96 82 100 78 64 78 56 46 88 62 60 62 32 62 100 98 76 82 60 62 100 26 56 10 72 62 100 46 100 10 72 46 80 10 100 46 80 62 28 62 24 82 64 26 8 62 80 82 100 42 48 98 64 26 92 26 100 93 59 77 39 93 59 85 75 41 39 57 59 93 75 97 75 89 39 77 75 97 23 69 75 97 75 81 75 61 75 81 75 93 59 97 39 97 75 45 59 97 75 77 75 77 23 97 59 69 99 61 59 45 23 81 23 97 59 81 7 65 23 77 67 97 43 29 59 85 59 81 7 45 7 65 23 33 7 65 55 81 7 29 59 85 87 65 7 69 11 85 59 85 43 65 63 85 83 49 87 49 71 49 87 97 35 65 59 85 87 49 59 69 59 85 91 49 91 49 63 49 91 65 71 49 71 45 95 49 99 33 91 49 87 69 87 77 67 33 71 33 91 97 71 49 91 85 71 33 91 69 71 17 91 65 91 97 91 33 91 85 91 69 99 33 91 73 91 33 67 89 91 33 91 97 19 69 19 33 91 97 91 17 51 81 83 85 68 86 84 98 88 54 84 66 48 58 72 90 68 86 88 34 68 62 88 26 52 62 32 66 56 30 32 74 52 94 88 38 84 42 48 30 88 78 72 22 96 86 88 86 88 98 88 90 88 50 88 86 88 74 88 98 84 54 88 74 88 98 72 86 88 94 88 78 72 94 76 98 72 50 72 78 36 90 60 10 36 94 68 90 20 78 36 62 72 42 32 78 72 90 8 94 56 98 20 94 20 58 32 98 100 62 20 90 100 94 100 82 4 78 56 58 92 78 28 46 36 98 100 98 60 10 72 98 4 94 68 98 32 26 4 62 88 98 28 62 72 98 36 62 20 62 88 62 100 82 56 46 64 82 100 46 72 82 100 10 72 10 80 46 88 62 92 10 20 86 100 10 64 62 100 78 64 82 96 82 32 10 100 46 84 62 28 61 67 97 75 93 75 45 59 81 75 57 75 93 99 77 75 97 75 61 75 77 75 25 75 85 75 81 75 85 75 77 75 93 75 77 75 81 75 97 59 93 75 85 59 61 75 97 59 29 59 97 23 97 59 97 7 45 43 81 75 81 59 85 43 65 7 81 59 89 7 97 7 97 7 81 7 85 7 65 7 69 67 65 71 85 95 81 7 85 7 85 91 65 99 65 43 85 71 49 71 29 91 29 87 85 71 85 59 65 87 85 87 85 91 65 67 33 11 85 39 49 87 33 47 29 51 65 71 33 15 33 91 33 99 17 91 45 91 73 91 1 67 81 91 65 71 33 71 17 91 33 59 85 91 49 91 65 91 97 91 85 87 81 91 89 91 97 11 33 91 81 91 69 55 33 91 69 91 77 87 49 91 33 91 45 91 81 56 86 100 58 32 90 68 46 68 94 84 62 84 54 96 82 72 30 68 38 68 50 88 30 84 30 44 90 52 94 32 78 72 50 88 78 88 98 52 38 88 30 68 30 72 30 88 98 88 94 88 98 88 78 88 98 88 10 88 62 88 94 56 90 88 54 72 74 88 94 36 94 72 54 20 2 36 98 72 74 72 94 36 94 72 58 88 42 52 78 72 94 36 94 100 98 20 42 56 58 8 78 20 82 96 42 88 78 28 78 52 46 88 98 96 26 4 94 44 82 20 62 56 78 20 78 100 62 88 62 88 62 52 62 36 90 4 82 100 98 60 62 56 62 56 98 96 62 100 62 100 98 96 82 44 26 60 78 96 46 80 78 100 50 68 62 60 46 80 46 72 46 76 82 100 82 96 38 64 46 80 10 100 94 100 82 100 77 39 93 11 65 75 77 75 81 75 77 75 25 3 65 43 97 75 45 75 81 75 65 75 97 75 77 75 81 75 97 23 57 75 97 59 85 59 85 75 65 59 65 59 81 23 97 23 29 59 65 75 45 43 85 59 81 23 85 87 81 23 85 59 1 43 45 7 97 7 81 87 77 7 81 7 85 7 65 7 49 43 97 7 81 43 49 43 85 55 65 51 65 67 29 51 85 15 45 43 49 91 65 71 49 91 85 91 85 71 85 43 49 91 85 91 13 67 81 71 33 35 33 67 69 75 69 79 33 91 33 55 33 91 33 91 49 71 33 91 69 91 69 51 81 91 17 19 17 91 17 91 33 91 49 91 13 91 17 91 17 91 69 91 69 91 65 91 45 91 85 91 13 55 73 71 69 91 85 91 85 91 21 43 97 91 85 100 54 84 42 84 94 52 30 68 94 84 14 84 78 72 98 68 50 32 94 40 30 16 30 88 30 84 62 48 94 84 58 84 66 84 86 88 62 20 30 68 94 68 50 52 94 88 94 88 94 88 66 88 90 88 94 88 78 88 86 72 98 68 70 88 90 52 90 88 82 64 78 88 82 56 78 72 98 72 70 72 94 36 78 36 70 72 6 72 82 56 98 20 62 72 42 36 82 20 78 20 98 56 94 72 94 36 74 72 78 56 78 88 94 56 78 88 98 88 78 100 98 84 62 20 78 80 82 76 26 68 62 88 62 80 82 28 98 64 62 100 98 76 78 76 62 88 46 24 98 88 62 52 78 100 46 92 98 80 46 64 46 100 10 64 46 100 46 36 46 28 98 56 46 28 46 72 82 64 10 100 46 64 46 100 46 40 77 39 97 75 97 59 81 87 93 75 93 27 45 75 45 75 97 75 97 39 65 75 97 75 97 43 97 75 97 75 81 39 93 43 97 59 85 75 57 43 85 23 97 43 85 59 97 43 61 59 61 23 85 35 29 23 81 75 41 7 81 75 97 7 89 7 81 43 89 7 93 7 73 7 97 43 97 7 81 87 65 7 85 7 85 59 81 71 33 99 49 87 65 31 85 43 85 35 85 7 85 71 85 71 49 55 85 23 13 91 49 91 85 75 61 59 69 91 85 39 33 91 33 99 33 79 49 91 33 91 33 99 33 51 77 55 69 95 73 91 49 7 65 79 49 91 17 91 65 91 85 91 69 91 93 91 41 91 17 91 69 91 21 91 77 91 69 91 33 91 69 91 33 55 97 55 73 99 33 47 69 91 13 51 85 87 49 84 30 68 82 88 30 88 98 52 94 20 30 32 50 52 82 88 86 52 30 84 98 56 94 52 66 52 94 68 82 68 30 88 58 72 78 88 90 84 94 88 86 88 10 76 98 88 74 88 34 88 98 88 46 88 30 68 22 88 50 52 90 52 58 88 78 88 94 72 94 68 94 72 42 100 90 72 70 88 42 72 94 32 50 72 98 84 78 36 66 96 98 88 62 20 94 4 62 72 10 20 82 56 78 56 18 36 98 20 42 32 62 4 26 100 86 100 50 4 78 56 58 100 82 96 98 76 98 100 98 100 98 96 98 68 98 96 98 100 94 80 78 100 98 68 10 96 98 88 98 64 26 44 62 56 98 100 82 88 98 76 46 96 46 52 46 76 82 48 46 96 82 4 46 64 78 44 90 96 10 40 82 24 82 64 90 80 97 75 97 75 49 63 41 75 77 75 49 79 61 75 65 75 97 59 93 75 97 75 81 75 29 75 5 75 57 75 97 27 93 75 93 43 97 59 69 59 97 59 61 59 13 59 29 59 45 7 65 59 85 75 93 59 61 23 81 23 93 7 65 59 69 7 61 23 81 7 97 43 65 7 81 43 97 63 85 99 69 75 25 43 85 43 85 7 97 75 65 59 65 71 65 43 29 91 85 43 85 59 85 43 65 7 85 23 97 75 85 63 45 63 49 7 85 35 85 43 33 55 33 91 33 91 33 51 33 87 17 83 33 91 13 91 69 91 61 91 69 75 93 83 69 91 29 91 45 91 17 71 33 91 81 87 65 91 65 51 17 19 17 91 73 71 45 91 17 91 17 67 33 59 97 99 77 91 85 87 77 91 17 91 41 31 17 48 86 84 94 84 30 88 78 48 30 88 74 88 90 84 90 72 74 88 70 32 58 56 58 72 98 88 30 72 86 88 30 72 66 88 30 72 30 72 98 72 98 68 30 96 90 88 66 88 50 96 98 88 78 88 66 88 70 72 70 88 86 88 90 64 50 20 74 72 6 96 74 72 42 100 74 72 94 36 98 72 70 72 94 16 74 4 58 56 58 56 94 36 22 20 94 56 94 4 42 56 78 72 58 96 78 84 98 88 98 32 46 72 98 20 98 36 98 72 62 56 98 4 62 56 98 4 62 4 62 88 98 48 98 96 98 64 98 72 98 100 98 28 62 100 62 96 78 96 62 80 62 56 82 28 46 100 46 72 46 80 98 20 82 80 46 100 46 100 98 72 46 100 62 68 98 100 10 100 70 84 98 28 46 8 74 68 93 75 45 43 77 95 45 75 41 39 49 75 81 27 97 75 85 75 97 75 93 63 65 75 93 75 85 75 85 75 77 47 61 59 49 75 97 59 49 59 81 59 93 59 29 59 77 59 97 23 65 55 81 43 81 59 69 59 69 39 65 91 85 43 65 43 81 7 85 43 81 7 61 79 69 59 29 7 97 43 85 83 69 7 81 83 49 55 49 35 85 71 97 43 93 63 85 43 85 75 85 83 81 71 85 23 13 43 85 55 85 23 85 43 85 91 85 91 85 79 85 47 69 71 69 91 33 67 33 71 33 35 93 91 17 71 33 55 17 91 81 83 69 91 17 91 17 91 85 23 49 91 17 91 69 87 85 91 17 91 45 91 17 87 17 91 81 71 69 55 65 91 33 91 49 91 65 55 9 47 17 99 37 71 49 71 85 84 30 100 90 68 74 48 98 68 66 72 34 88 66 88 30 68 66 84 94 80 78 36 30 52 30 52 78 68 74 88 30 72 90 88 30 72 30 68 82 88 98 76 78 44 30 84 6 88 94 88 94 88 86 72 50 72 42 88 94 88 78 72 98 72 42 72 98 84 58 88 78 72 54 72 46 36 94 72 98 72 54 20 74 68 46 72 42 72 62 76 82 56 18 56 98 56 78 20 98 48 6 56 18 56 82 72 94 56 22 80 46 44 26 4 98 68 98 56 98 4 98 4 10 96 26 28 82 88 98 100 98 44 98 28 98 84 98 20 98 56 98 96 98 80 82 100 98 68 62 100 82 100 62 28 82 44 98 80 46 72 46 100 46 80 82 100 46 60 46 100 82 96 82 60 98 72 10 64 46 68 46 80 82 100 26 100 77 75 57 83 81 39 69 75 69 59 81 75 97 75 81 75 93 75 77 75 41 39 57 59 61 79 85 59 77 75 93 75 97 75 65 75 77 59 93 59 81 59 57 59 81 59 69 87 25 59 13 59 97 43 45 59 69 43 93 43 65 59 77 7 77 19 65 39 81 83 81 7 97 47 65 7 49 43 17 39 45 71 29 75 81 99 69 67 85 35 85 67 85 91 85 99 85 63 49 55 85 43 65 55 85 83 85 83 85 71 49 91 85 43 45 83 33 71 49 87 85 55 45 91 33 67 81 91 17 91 69 91 17 95 33 91 33 35 33 91 45 55 33 83 81 91 17 91 65 91 33 91 69 91 17 79 77 91 33 91 69 91 49 55 17 55 81 79 17 91 17 91 69 91 81 51 9 91 85 91 21 91 33 91 73 55 13 76 90 84 38 68 90 68 66 56 94 88 30 16 66 48 54 84 78 56 94 76 22 56 94 96 30 60 98 88 30 68 30 68 86 68 62 76 30 88 30 88 94 88 86 36 30 88 50 88 62 88 58 72 78 68 6 88 78 72 58 88 94 88 74 88 94 88 30 72 26 36 78 72 90 72 74 72 62 56 82 72 94 88 74 72 78 52 86 36 30 72 98 20 78 20 78 56 62 56 94 56 94 20 62 56 54 40 26 88 94 44 78 20 74 4 42 36 98 4 98 4 70 72 94 4 42 88 98 88 98 80 82 64 98 72 98 4 98 72 82 72 98 92 98 20 98 28 82 20 98 80 98 36 82 56 82 4 46 100 82 52 46 56 46 28 46 80 46 100 98 80 82 56 82 64 82 60 46 100 98 100 46 100 78 20 82 4 77 59 81 91 25 23 93 39 85 59 45 75 21 75 53 59 85 59 97 23 81 75 81 75 45 59 57 75 97 75 81 59 85 31 81 59 57 59 69 59 81 59 81 75 61 59 9 59 97 59 85 7 93 59 69 43 69 59 93 7 81 43 81 43 85 43 33 43 81 43 81 75 69 43 13 7 89 59 65 7 65 7 65 67 85 43 29 95 85 43 85 43 33 43 85 31 85 79 85 59 49 55 85 83 85 59 85 87 85 23 85 75 85 67 85 87 17 99 65 51 69 91 69 91 69 83 69 91 97 91 69 91 33 83 33 71 33 43 17 91 17 87 81 87 85 75 17 7 69 91 49 91 49 91 17 91 85 87 85 91 69 71 89 91 69 87 85 27 69 91 85 55 17 91 41 91 61 51 9 7 85 99 65 91 17 91 69 52 70 68 30 84 70 32 42 84 94 84 90 88 98 48 98 52 30 52 30 88 70 68 30 68 86 88 30 52 58 76 54 60 30 72 30 52 30 88 78 72 30 68 30 84 30 88 58 36 74 88 90 96 18 40 98 88 94 80 90 72 78 72 74 88 70 72 30 72 62 72 14 72 94 72 38 72 74 72 98 72 54 72 94 72 94 72 98 36 94 88 78 20 98 72 26 20 98 72 78 60 62 20 62 56 62 72 78 56 78 20 82 4 62 4 82 88 82 84 98 4 98 4 98 56 62 100 98 56 62 36 98 88 98 52 98 100 98 96 98 100 98 64 62 64 98 44 98 28 62 100 98 100 82 40 62 16 98 36 46 88 26 72 82 52 82 68 82 100 46 92 82 64 46 92 46 56 82 28 94 76 82 40 46 64 98 76 97 43 25 75 69 75 81 7 97 59 29 59 61 59 29 91 97 75 45 75 29 75 81 99 45 75 81 87 81 59 93 91 77 59 97 75 97 59 49 75 77 59 49 59 65 87 65 59 65 59 97 23 93 43 81 43 49 43 65 43 81 43 29 43 25 43 29 43 41 7 81 43 85 59 97 43 41 91 33 87 13 43 49 7 69 43 81 7 85 43 85 87 85 67 85 47 65 39 85 71 85 87 85 55 85 63 85 91 81 31 85 59 49 31 69 67 81 59 33 51 69 87 69 79 33 55 85 91 85 91 85 99 33 91 69 87 69 83 81 67 69 71 69 91 9 91 17 87 17 91 17 67 17 91 17 55 93 71 17 71 17 75 17 91 85 55 17 91 17 55 33 79 77 91 69 95 65 35 13 91 13 47 89 91 69 27 65 72 90 52 62 68 30 88 78 56 94 88 42 76 78 84 34 20 30 88 42 84 30 88 30 8 30 56 30 32 30 72 30 88 30 68 30 88 30 72 98 72 30 88 90 44 30 92 30 88 30 84 94 68 74 88 42 88 58 88 46 72 90 72 58 56 94 68 82 88 94 72 46 88 94 72 70 56 22 56 98 72 62 4 74 72 98 72 98 100 98 72 18 56 58 56 62 56 94 56 26 56 98 84 58 56 98 72 82 36 98 4 98 56 78 36 10 4 42 4 82 60 94 4 98 4 98 40 98 4 78 56 98 32 98 56 98 36 82 100 98 56 98 44 98 68 98 88 46 32 82 40 98 96 82 100 98 80 82 100 82 48 82 96 98 96 98 36 46 80 82 72 46 56 98 92 46 52 94 64 10 8 98 80 10 64 46 88 61 95 9 87 85 59 45 75 85 75 93 75 85 59 97 47 61 59 97 75 85 23 81 75 97 43 61 59 61 43 97 75 49 59 77 43 97 59 81 59 49 75 85 23 29 23 61 59 97 43 49 43 97 43 77 59 93 43 85 43 61 43 65 43 1 43 81 43 85 43 97 43 57 43 61 99 81 39 49 75 81 55 65 91 93 43 85 99 85 43 85 7 85 75 85 71 85 43 85 31 49 43 49 91 85 39 33 87 81 71 85 39 85 67 81 7 69 67 85 91 81 91 69 91 33 79 33 71 69 91 85 91 69 91 69 7 69 87 97 91 69 87 17 91 53 91 17 55 17 43 17 87 9 91 17 87 17 35 49 91 33 59 25 71 17 91 97 91 17 91 45 55 17 71 53 91 65 79 69 55 17 99 69 87 85 19 89 88 30 8 54 72 42 68 30 84 30 52 82 52 58 92 98 84 30 8 62 84 90 84 30 68 30 36 30 48 30 84 30 88 86 72 30 32 30 84 98 88 30 72 30 72 30 88 30 20 94 88 26 88 50 68 46 48 30 88 42 72 90 52 54 88 18 88 82 72 98 88 82 16 62 72 58 72 94 72 6 72 86 56 90 88 98 56 38 88 94 56 98 36 94 56 90 52 94 56 94 72 62 56 62 20 98 72 98 4 82 56 98 4 78 4 78 4 98 20 78 4 98 52 98 4 82 88 98 52 98 96 98 80 82 72 98 20 98 80 98 100 98 52 82 88 82 64 62 96 82 64 82 100 82 100 46 88 82 32 46 36 46 100 82 100 82 28 98 100 46 100 46 20 82 24 82 84 26 80 82 56 82 16 98 100 98 64 65 75 97 75 81 83 61 59 41 75 97 75 97 87 97 75 49 3 81 99 5 39 89 75 85 75 29 23 29 59 97 59 65 3 81 75 65 43 65 75 97 59 85 43 85 59 69 43 81 59 49 43 21 23 97 43 77 43 97 43 45 7 13 43 33 43 45 51 65 23 65 55 85 87 85 43 81 71 89 43 45 59 85 7 85 31 65 7 77 55 85 43 65 63 85 43 85 83 85 87 85 55 85 71 85 67 65 55 85 83 97 83 85 43 85 99 69 59 69 71 69 59 69 91 33 87 69 87 69 55 69 55 77 71 85 51 69 91 85 83 33 59 17 87 17 55 17 59 69 91 17 15 17 91 21 55 85 55 61 87 49 71 33 99 17 91 69 91 77 19 33 91 85 47 17 55 13 83 69 83 81 15 17 19 41 91 69 48 30 84 54 84 54 12 30 88 86 84 98 88 30 88 30 68 30 88 94 84 94 84 74 36 58 52 30 68 82 84 30 52 30 20 30 88 14 100 30 88 30 40 78 72 94 68 58 40 46 88 90 88 82 88 94 40 98 36 90 88 86 84 94 20 90 68 62 72 94 72 86 72 78 72 62 72 94 72 46 16 30 56 98 72 98 56 82 88 98 56 78 56 98 56 62 56 62 56 98 36 38 100 62 20 94 20 94 4 46 88 98 4 98 28 94 4 98 96 78 64 98 4 62 88 98 80 98 72 98 52 98 32 98 100 98 64 46 88 98 100 98 52 82 60 46 8 82 20 98 4 98 80 82 4 82 100 98 4 82 56 82 100 82 84 82 100 46 52 46 80 62 96 98 76 82 76 46 96 46 4 82 96 46 96 82 20 61 75 97 39 93 75 61 99 29 75 41 75 13 43 77 75 97 43 45 75 77 59 89 59 5 59 97 83 41 47 93 59 61 59 85 59 97 75 61 75 29 59 45 59 73 43 65 59 97 43 81 7 85 7 61 99 97 71 81 51 97 43 65 43 85 43 65 43 33 43 45 43 85 59 93 39 33 87 97 35 81 99 61 91 85 43 49 91 97 43 97 99 65 43 85 91 85 99 33 19 85 31 49 23 5 59 85 67 97 91 85 87 69 3 17 91 93 91 69 75 69 51 33 71 69 91 69 79 69 59 33 91 69 91 69 91 17 79 69 71 69 23 33 35 49 43 85 43 17 35 17 51 17 87 17 91 69 91 69 67 65 71 13 87 85 67 85 87 17 87 65 63 73 71 5 91 69 91 85 87 97 91 89 91 33 91 61 48 30 12 30 32 78 84 98 68 78 84 86 64 34 28 90 84 46 24 98 56 78 84 30 88 94 88 30 96 30 88 94 84 30 56 94 88 82 88 42 72 54 72 30 88 30 84 98 88 30 72 54 48 70 100 90 4 98 88 54 16 94 88 74 72 74 92 30 72 46 72 98 100 82 88 46 72 82 16 54 72 98 28 98 36 98 36 78 56 82 56 98 68 78 72 94 56 94 56 98 56 42 72 78 36 98 4 78 72 98 56 78 20 54 84 94 24 58 56 98 72 98 44 98 88 62 56 98 100 82 100 82 100 98 4 98 40 98 100 98 88 46 52 46 20 98 72 78 72 82 64 82 100 82 64 82 100 82 64 82 64 46 80 82 92 82 60 82 36 82 44 46 96 98 84 78 8 98 28 62 88 62 28 46 60 98 48 69 59 61 55 49 75 81 71 65 23 85 71 61 75 85 99 77 59 97 75 93 7 81 43 93 75 57 75 77 75 77 59 93 75 81 75 41 59 49 43 93 75 85 87 81 23 85 43 93 43 21 99 65 43 81 43 85 43 69 43 57 59 89 43 97 83 49 43 85 43 85 99 45 7 69 51 73 43 65 43 81 59 61 43 69 59 81 91 85 43 97 43 85 55 85 15 85 51 69 87 69 91 85 71 97 99 85 51 41 55 69 59 69 71 85 71 69 43 69 55 69 79 69 39 69 91 69 87 69 59 69 83 85 91 69 91 17 87 69 91 17 71 85 91 17 91 33 63 77 91 17 91 69 67 17 87 49 71 73 35 69 91 33 3 37 23 33 71 85 91 69 71 61 67 65 19 97 99 25 55 69 99 33 67 17 43 85 84 30 68 30 100 70 68 90 72 50 68 70 88 10 68 30 84 54 96 98 32 58 88 30 68 54 88 62 88 30 88 30 84 30 20 86 20 30 100 70 80 74 88 14 48 66 68 98 88 94 68 54 52 94 68 34 72 34 72 98 36 90 48 94 88 62 72 42 72 94 64 74 84 38 36 78 88 74 88 78 84 62 56 98 56 38 72 98 72 78 72 94 56 94 56 98 56 94 56 98 56 98 52 78 56 98 88 58 56 82 20 54 88 46 4 78 20 98 68 98 4 82 72 78 4 82 96 30 44 98 60 94 4 82 80 94 88 26 72 98 52 82 36 98 88 98 68 82 44 82 88 82 72 98 100 82 44 82 88 82 100 82 28 46 88 98 44 82 52 10 8 10 60 82 32 82 96 82 56 82 80 82 76 82 96 46 36 81 23 33 79 93 91 77 75 49 75 61 75 97 23 29 79 77 59 93 55 61 35 77 59 61 59 81 23 85 75 61 43 97 59 97 63 45 43 93 59 77 39 69 43 85 39 61 75 81 67 85 43 85 43 69 43 85 71 65 95 41 43 85 43 97 83 85 59 61 75 85 43 81 43 85 43 85 43 49 99 85 95 49 79 69 43 97 99 65 91 65 75 69 87 25 7 69 99 69 95 81 87 85 83 93 27 85 3 85 95 69 35 69 79 69 91 85 99 49 71 85 43 69 87 69 35 69 35 69 99 69 91 85 91 85 91 69 91 69 71 69 39 33 71 17 43 45 83 17 15 61 91 69 35 17 99 85 87 17 91 85 67 93 51 33 91 33 91 73 91 13 91 49 71 41 51 41 91 69 71 69 67 37 87 81 55 49 76 54 68 82 52 98 32 82 56 86 72 42 88 62 88 74 52 38 84 62 100 30 84 30 32 30 40 94 52 86 52 94 88 30 32 70 88 30 72 30 68 30 68 14 32 98 88 90 88 74 96 78 32 70 88 62 72 30 72 38 56 62 88 94 36 58 36 94 72 58 76 94 16 94 72 98 88 74 72 62 72 66 56 94 72 94 72 82 56 98 56 62 56 98 56 98 56 98 56 74 56 34 72 74 56 82 64 78 4 66 72 82 4 98 56 98 4 58 88 98 56 82 72 94 4 98 88 98 80 98 20 82 56 82 56 98 60 98 20 62 96 98 96 98 100 98 80 98 100 46 100 82 80 82 16 82 64 82 36 82 52 82 56 82 64 82 100 82 68 82 56 98 100 82 68 82 96 62 56 98 64 82 96 46 56 82 96 81 11 77 75 97 75 57 75 65 75 45 75 61 59 29 75 45 7 37 59 33 75 93 23 81 75 85 75 93 59 69 79 89 43 65 23 97 59 97 59 97 39 93 59 17 7 53 99 61 59 65 39 49 43 9 43 9 91 97 39 49 43 69 59 85 23 33 43 97 43 65 43 77 43 69 43 97 39 17 43 61 43 85 59 69 43 49 59 69 43 81 75 85 75 85 75 85 59 85 23 13 75 65 35 33 91 69 51 85 43 69 91 97 43 45 91 69 7 69 55 69 99 13 71 65 87 69 91 85 95 69 67 69 51 69 43 49 91 49 99 33 71 17 91 69 91 69 55 65 79 89 35 17 59 49 91 77 99 25 51 33 55 17 55 69 91 17 43 33 31 77 15 29 91 97 91 69 83 65 83 69 71 93 71 65 43 9 64 90 88 94 88 98 68 26 32 98 96 82 64 70 84 30 88 30 48 94 84 30 44 30 72 30 12 94 84 74 56 78 88 30 88 98 88 82 52 86 56 98 68 46 88 74 88 42 88 82 72 46 72 66 72 46 72 82 96 54 36 98 64 30 28 30 40 98 88 74 56 46 72 78 72 82 44 74 72 90 56 94 56 94 88 62 24 94 56 86 72 74 56 86 56 62 56 98 72 82 56 62 88 42 56 98 20 42 92 98 88 98 20 46 20 98 4 94 72 98 56 98 4 62 100 98 68 98 60 98 100 98 100 98 56 62 64 78 96 98 96 78 72 98 80 98 16 98 44 82 96 82 4 82 100 82 60 46 96 98 88 98 84 82 100 82 88 82 4 82 64 82 72 90 56 46 28 82 64 10 36 98 96 10 60 62 96 93 47 81 75 97 75 13 75 77 43 97 75 81 23 97 23 57 95 13 99 85 59 41 79 97 39 77 75 81 51 45 91 57 87 81 39 9 59 81 51 97 23 93 59 65 27 69 91 85 43 21 7 81 43 25 71 85 43 1 59 61 23 57 59 81 43 61 43 77 55 65 59 81 59 85 7 85 43 65 39 85 43 29 7 69 99 85 75 69 3 65 75 85 91 85 91 85 67 85 23 37 7 85 43 85 59 33 91 65 59 69 75 85 91 69 11 69 87 69 55 41 71 69 87 69 91 69 67 69 7 69 91 81 35 69 39 33 99 33 55 85 91 69 51 49 91 85 91 17 99 89 99 49 91 17 15 97 91 17 71 69 91 13 79 61 51 33 15 85 19 69 91 65 55 33 47 93 55 41 91 85 99 81 51 41 91 21 76 34 72 98 84 58 68 70 88 70 88 62 88 54 72 90 88 30 32 50 4 94 36 58 84 30 32 14 52 54 72 30 88 70 88 30 36 46 68 30 56 30 88 42 20 30 72 94 56 6 48 94 72 98 72 94 84 82 68 58 56 30 68 42 52 98 36 82 72 82 72 82 100 42 88 2 92 90 20 98 72 62 100 82 56 82 56 74 56 98 72 98 56 6 36 94 72 98 88 42 88 74 100 78 96 98 56 98 100 46 68 98 88 62 56 62 56 98 56 74 4 98 20 62 4 82 100 46 88 98 4 98 24 98 96 98 64 42 52 78 92 82 72 82 92 46 56 82 72 18 100 82 96 98 72 82 100 82 88 82 100 82 56 62 4 82 68 82 92 82 96 82 72 98 76 10 72 82 80 82 88 78 80 82 60 98 100 69 47 81 99 93 35 81 63 93 59 61 3 37 75 1 87 93 75 69 79 97 83 77 59 61 83 97 59 77 59 57 23 13 59 85 95 97 75 97 59 57 99 97 59 97 23 17 59 49 23 61 43 21 55 57 75 45 59 49 59 85 7 17 43 85 43 65 43 85 91 13 71 49 7 85 59 61 67 69 91 85 43 85 43 85 91 85 91 65 43 97 95 69 99 29 59 49 87 85 43 69 91 97 99 25 91 85 59 25 87 69 35 81 95 69 95 69 7 69 35 69 67 85 67 69 91 69 95 69 71 69 23 69 55 17 87 85 55 33 87 69 71 45 67 97 91 69 11 17 19 17 87 65 19 17 91 69 79 85 31 77 91 73 87 69 47 85 71 69 87 81 91 49 87 81 51 69 55 17 83 69 91 81 43 65 91 89 84 86 88 74 68 30 100 34 68 86 96 78 88 26 88 34 84 86 88 78 72 98 88 78 88 50 64 42 56 66 52 98 72 30 88 30 84 30 60 82 64 58 88 78 88 30 68 30 68 10 88 70 88 86 68 26 56 78 16 82 52 78 88 86 72 90 56 46 88 78 72 78 80 38 72 94 56 30 72 62 88 62 88 94 20 98 56 6 100 78 20 98 56 86 56 78 56 26 100 98 56 94 56 94 56 34 60 98 56 74 100 78 60 46 88 94 24 94 48 82 56 98 100 98 56 98 72 98 72 82 36 98 44 82 88 98 96 82 4 62 28 82 56 98 100 98 88 98 56 98 60 82 88 82 100 82 72 82 100 82 20 82 4 98 96 82 100 82 100 82 60 82 72 82 32 82 44 82 24 94 28 62 72 46 64 82 80 77 59 41 43 69 43 85 75 49 87 77 95 93 75 65 91 69 75 65 99 77 71 49 59 49 79 61 75 97 59 81 71 65 43 81 43 49 79 93 23 21 43 89 39 61 43 33 75 77 59 65 43 85 43 85 75 97 19 33 59 17 43 97 23 65 7 57 43 85 43 13 59 85 43 85 3 81 87 9 51 29 83 85 43 85 43 33 67 85 7 33 11 85 67 85 67 69 43 81 59 97 87 93 43 69 67 13 35 85 87 85 43 69 71 33 99 69 87 45 91 85 91 33 43 69 47 85 51 17 95 69 55 17 91 69 75 49 91 49 79 69 99 69 67 49 59 97 59 93 7 17 67 69 71 77 91 97 99 17 15 81 91 33 91 69 71 33 47 69 91 69 23 41 91 69 91 9 71 97 91 33 71 81 15 49 91 81 88 90 16 30 84 74 88 42 56 94 92 82 88 2 32 90 88 78 52 30 52 30 84 58 72 78 56 54 68 74 52 82 88 98 88 42 32 30 88 78 72 94 72 94 56 42 68 46 88 30 56 46 72 94 72 26 88 78 8 98 52 98 72 70 88 58 72 94 88 98 88 94 72 98 36 90 72 82 96 46 52 46 88 78 72 6 72 98 80 94 56 74 16 94 56 98 56 74 56 50 100 86 64 98 56 42 72 98 84 62 88 42 56 78 16 98 76 46 72 26 76 94 96 82 88 94 56 98 76 98 20 98 96 82 52 82 100 82 80 86 56 98 68 82 4 98 76 98 100 62 100 82 88 82 72 82 80 82 72 82 52 82 96 82 80 82 88 82 72 82 80 82 52 62 88 82 56 82 80 82 48 82 88 82 76 82 100 97 59 81 59 69 75 81 39 93 75 57 59 61 75 89 39 65 99 97 23 57 99 97 75 61 59 65 75 49 59 97 43 85 3 65 59 65 59 13 59 65 59 45 71 45 59 65 43 61 39 29 23 69 43 25 39 85 59 69 63 97 91 81 87 85 27 81 43 61 43 85 83 85 23 85 75 85 43 25 43 65 7 97 75 81 99 97 99 33 95 97 43 49 75 85 71 85 43 69 71 69 87 69 55 29 91 85 63 77 83 49 79 69 83 81 15 81 55 69 95 49 91 85 39 85 91 69 39 33 55 69 35 69 91 69 59 93 75 85 43 49 87 69 91 69 7 85 7 33 91 65 55 69 71 69 91 69 75 85 55 33 99 69 19 17 19 93 63 29 47 85 55 73 59 45 35 9 55 85 55 17 31 65 55 69 99 17 56 82 60 46 100 38 36 86 88 30 56 26 24 62 84 78 72 46 88 82 52 30 68 90 52 30 68 90 68 94 12 58 72 82 88 30 28 94 84 2 88 6 56 62 68 98 88 30 84 22 88 42 84 46 68 78 72 82 48 62 36 94 72 98 72 78 100 94 68 98 72 94 64 66 56 98 84 94 64 74 72 98 52 74 56 26 52 98 72 94 20 90 56 30 92 98 88 86 92 62 56 10 80 62 56 42 20 98 56 70 4 78 96 98 56 82 16 82 56 82 56 62 56 98 20 62 4 82 100 82 88 62 80 62 52 82 92 98 4 18 60 82 4 98 4 82 72 98 100 98 4 82 100 98 96 82 4 82 80 82 52 46 96 46 48 82 36 98 68 82 20 78 44 46 100 10 100 94 88 78 48 90 56 78 60 98 96 97 63 97 83 53 75 97 99 61 43 65 75 97 75 49 75 69 43 25 75 81 59 93 59 97 75 65 23 89 75 81 23 77 7 85 23 77 43 65 87 69 3 81 83 97 75 69 75 69 23 65 59 97 75 85 43 97 75 29 43 97 7 1 63 85 75 81 11 57 19 69 75 85 23 69 23 29 23 85 47 65 3 69 91 69 43 33 59 85 87 85 83 69 55 37 59 77 51 89 99 85 99 85 35 49 99 85 91 69 99 69 99 81 67 69 35 69 43 49 99 69 31 69 71 69 91 97 91 85 75 65 91 85 15 69 91 69 87 61 91 85 55 69 91 69 75 13 91 57 67 69 91 85 91 97 75 9 39 21 91 85 19 69 31 69 83 85 91 69 39 85 47 69 55 17 83 33 35 17 19 97 55 33 87 69 55 57 84 50 68 50 20 98 64 62 56 26 20 30 36 30 84 30 68 62 72 30 100 78 84 74 88 30 72 82 88 82 88 62 84 98 88 30 88 30 76 70 88 94 96 50 36 70 56 62 84 30 84 86 88 98 84 42 52 70 88 66 92 98 56 50 72 78 56 86 88 46 72 54 56 30 56 98 52 94 56 90 72 82 72 78 72 66 72 98 56 98 52 82 56 82 96 98 20 74 56 94 56 82 56 98 56 98 56 62 4 74 64 82 72 78 88 98 4 62 56 82 20 98 96 98 56 74 56 98 72 94 56 98 76 98 28 98 52 98 68 98 28 98 52 82 100 82 88 62 76 82 80 98 52 82 88 82 28 82 96 90 20 82 64 82 96 82 68 82 20 46 92 98 8 82 96 98 32 82 60 42 92 78 88 62 32 62 100 97 59 65 47 77 75 41 3 97 75 85 55 61 75 49 59 93 79 73 23 69 75 77 75 93 75 93 59 97 23 77 23 41 59 93 95 65 75 93 79 57 51 93 47 97 7 57 39 81 47 81 43 81 99 85 43 77 43 61 59 85 59 53 47 85 43 81 59 97 43 85 43 65 59 45 3 89 59 49 67 85 59 85 99 49 71 49 91 65 43 85 67 65 87 85 43 97 75 29 27 69 87 85 15 49 39 85 95 85 43 69 11 49 23 69 75 69 19 85 63 69 91 69 55 93 91 69 91 69 7 85 71 17 43 69 39 65 87 33 35 85 91 69 19 69 71 33 83 77 27 17 91 49 51 65 95 57 91 65 91 41 99 69 75 33 91 65 67 17 71 17 79 85 27 33 47 89 91 85 59 89 91 93 79 73 71 93 68 62 68 82 84 98 12 30 88 90 88 82 68 78 68 74 88 98 96 74 88 90 72 94 52 46 84 30 88 78 72 58 72 30 88 98 56 94 88 70 88 86 72 90 52 98 96 78 100 78 56 74 52 30 88 98 48 30 52 98 72 82 72 98 56 98 72 94 88 82 88 26 56 94 56 90 56 94 68 42 88 30 56 94 36 30 36 10 68 54 72 98 56 98 56 62 56 98 92 86 76 82 52 10 56 46 56 98 36 98 56 98 100 46 4 82 72 90 36 82 56 82 36 82 56 98 88 98 92 98 20 82 92 98 28 82 100 98 72 82 56 98 44 82 4 46 68 82 72 82 4 78 64 82 72 46 16 82 100 62 68 82 100 82 72 98 80 98 80 82 4 82 84 82 52 82 80 86 100 98 80 98 88 22 100 98 36 45 75 81 75 97 75 81 75 57 59 97 99 85 59 77 63 65 39 49 59 97 75 81 75 89 95 65 39 49 75 85 71 77 43 97 23 85 59 25 59 33 91 65 43 77 43 41 23 1 43 81 43 61 71 37 99 97 75 41 47 13 75 77 91 97 43 61 87 85 99 61 43 29 71 85 43 97 91 69 95 65 7 65 75 85 59 69 31 85 43 17 59 69 71 65 7 85 75 81 3 17 71 9 19 85 43 85 43 9 63 85 99 81 59 85 71 33 43 49 71 49 39 69 59 85 87 45 35 85 43 85 43 85 55 69 91 69 59 17 55 69 35 77 91 69 87 97 63 85 43 49 87 77 35 17 27 85 43 33 71 73 83 49 91 65 67 65 91 69 75 69 83 81 79 29 99 93 87 97 55 81 91 65 91 85 71 73 88 74 88 58 72 90 84 82 88 66 28 42 56 98 36 38 44 38 84 86 28 62 72 78 72 74 56 74 88 90 88 30 84 54 84 30 56 78 84 30 72 66 72 74 68 78 88 70 88 2 52 74 72 98 72 98 68 94 72 70 44 30 88 78 72 94 72 30 72 10 88 94 56 82 56 62 92 98 100 6 88 66 88 78 56 78 72 62 72 62 56 82 44 82 20 10 88 46 56 98 56 62 52 10 76 98 56 98 56 98 52 94 88 98 48 54 8 98 36 82 88 62 96 62 92 46 76 98 72 82 56 62 96 58 4 94 24 90 56 82 4 62 64 62 96 98 72 46 72 74 88 82 28 82 40 82 68 82 20 82 100 82 64 62 28 46 60 46 100 82 84 98 100 82 44 82 100 82 48 82 44 98 88 86 80 62 32 49 43 49 15 77 75 77 83 97 67 49 83 97 75 33 67 93 75 49 87 69 23 25 75 97 39 61 39 81 43 69 83 41 43 57 19 77 71 85 3 97 7 81 23 29 43 97 43 77 59 77 23 85 91 53 43 81 75 85 43 29 43 81 43 45 43 81 39 85 7 45 43 89 67 85 43 97 67 69 23 77 7 85 27 69 43 81 55 81 63 85 75 65 43 85 43 1 7 33 79 85 43 85 15 81 7 69 95 69 55 85 55 69 87 45 67 69 71 69 95 69 79 81 23 93 95 69 83 85 51 69 91 69 91 45 47 85 55 97 43 49 95 97 31 97 91 69 71 65 31 33 91 85 91 69 19 85 47 5 87 81 67 69 71 85 91 69 99 69 91 85 83 25 63 89 79 93 55 65 91 85 75 81 19 9 35 17