93 79 93 95 5 51 97 63 97 83 1 39 89 95 93 47 93 79 57 95 93 99 1 63 21 95 93 95 41 95 1 95 97 79 57 79 57 95 85 83 1 95 1 95 57 47 81 95 85 95 1 95 93 95 1 95 61 63 81 95 1 95 57 95 21 95 1 95 1 95 1 95 1 95 21 79 21 95 61 95 97 95 1 79 1 63 81 99 1 95 1 51 57 95 1 63 25 83 41 63 61 99 57 95 53 99 93 99 25 79 21 95 77 79 77 95 21 95 41 39 77 79 97 95 93 71 81 79 97 99 93 95 69 79 33 79 89 95 1 71 77 95 61 47 37 79 41 79 73 79 81 47 89 63 89 87 69 27 41 95 21 75 53 95 93 95 93 63 93 95 93 95 57 27 93 95 5 79 97 79 21 63 93 79 29 79 61 95 25 63 53 83 53 11 89 99 77 7 21 83 93 79 57 95 89 79 53 27 85 63 53 47 13 27 89 27 61 63 57 55 69 87 61 11 53 51 89 99 53 95 53 51 97 79 93 47 53 51 45 51 77 99 93 47 25 27 85 99 1 79 57 55 29 79 29 63 89 95 21 63 69 67 45 67 89 27 81 31 85 27 29 47 77 27 53 67 73 67 53 11 89 79 85 79 53 83 73 83 93 67 89 71 37 27 53 67 9 35 45 27 89 71 73 63 89 63 37 99 53 83 93 87 25 99 21 83 53 35 89 71 89 11 93 83 65 23 81 79 73 63 89 91 53 79 53 75 65 79 45 67 53 99 53 51 57 55 97 11 81 3 53 91 53 47 53 95 89 87 53 27 77 31 57 91 69 67 89 35 53 91 53 83 53 51 73 83 41 63 73 83 5 31 53 99 77 67 77 71 1 15 89 83 53 27 89 15 57 87 57 99 53 95 53 31 61 99 49 63 97 83 89 63 41 35 37 91 69 83 93 51 77 91 37 31 73 87 77 80 26 44 66 24 86 16 90 96 94 68 70 40 86 100 50 44 86 96 58 32 86 60 14 68 66 68 50 92 66 76 86 88 66 92 78 32 66 28 66 48 94 92 86 92 34 32 66 40 78 76 66 16 86 96 66 40 78 96 14 76 66 92 14 92 34 64 14 40 54 48 66 92 18 64 34 44 62 68 90 40 86 92 86 92 66 24 66 72 78 80 66 76 94 80 86 76 14 56 66 96 14 68 58 88 14 48 70 4 50 4 90 92 70 76 70 92 86 28 50 20 86 92 50 76 74 96 66 84 90 92 54 96 70 64 46 92 66 96 66 40 42 80 54 92 66 40 70 76 58 96 14 92 66 92 90 92 90 92 66 76 50 76 86 92 66 40 66 92 90 96 54 40 74 68 66 84 90 60 54 40 14 92 86 40 78 40 26 92 50 92 58 92 74 80 78 76 14 76 90 24 98 40 18 76 98 40 66 92 74 96 86 92 58 40 66 100 22 92 14 60 6 60 54 60 94 40 46 24 50 76 62 92 74 40 54 76 98 24 86 40 54 64 34 76 6 96 14 40 98 52 66 100 54 44 78 44 2 60 74 60 26 24 50 92 38 92 86 92 74 60 82 8 50 40 14 96 66 56 26 92 78 100 70 24 70 76 78 96 18 28 54 96 70 24 58 8 66 80 50 92 90 92 18 100 62 24 2 96 18 92 74 24 90 100 46 64 26 44 38 76 78 100 38 8 70 40 50 76 14 76 90 60 94 60 90 96 58 76 70 92 86 100 34 8 50 40 38 92 94 96 86 96 78 64 82 76 62 92 78 8 74 88 98 96 74 60 66 40 34 44 58 80 70 80 26 24 86 80 82 44 54 76 78 96 42 44 14 16 66 96 26 76 98 80 94 76 46 80 98 44 86 60 18 76 86 88 38 96 70 100 74 76 6 28 62 96 62 64 82 76 46 72 34 84 78 96 97 59 97 99 65 95 93 95 1 3 93 87 5 99 1 19 41 79 5 79 1 95 97 95 41 95 49 95 61 83 93 63 1 95 49 83 77 95 57 83 1 79 21 63 21 47 77 95 97 99 57 95 21 95 21 95 1 95 21 95 1 35 1 95 21 95 1 95 1 95 73 95 77 95 41 95 93 95 1 63 21 95 77 79 1 55 57 95 41 47 21 95 1 95 45 63 21 79 21 79 93 79 41 95 97 95 41 59 93 47 41 99 25 95 69 95 77 95 93 63 61 95 1 83 93 63 81 95 21 95 77 63 1 95 93 95 77 7 65 43 85 99 93 95 21 95 61 7 53 79 61 79 57 75 57 79 81 83 77 95 53 27 5 95 93 95 53 95 21 95 45 27 97 79 29 47 73 63 21 27 21 83 21 27 93 67 89 99 5 79 1 79 5 99 89 47 97 35 97 83 25 55 17 27 5 43 1 87 57 95 73 63 89 79 81 99 5 27 57 87 45 79 53 99 61 83 77 99 77 95 73 3 89 95 89 27 93 63 5 79 53 87 81 99 89 11 81 63 77 99 89 95 53 99 21 27 89 79 53 83 45 11 93 47 89 63 89 95 37 47 73 83 53 31 73 67 73 79 93 95 89 79 85 99 53 75 53 79 73 67 5 91 57 11 53 51 37 83 53 83 61 95 53 47 53 63 37 3 77 83 53 83 53 79 45 63 89 83 89 99 37 95 1 99 77 95 89 23 81 99 57 87 53 95 53 83 73 67 85 31 37 63 77 67 17 79 53 99 53 99 85 63 73 51 53 55 37 83 89 47 73 35 65 79 53 63 73 59 9 15 53 35 53 47 37 99 73 83 37 43 37 47 53 95 53 19 37 63 61 55 65 11 37 71 45 95 73 87 37 79 69 67 37 15 37 83 53 95 73 91 53 51 73 55 53 99 53 35 81 63 89 87 97 83 29 67 73 24 54 16 66 52 94 96 90 88 82 64 66 92 50 40 50 80 78 52 66 92 66 96 86 96 74 92 66 96 54 36 50 84 14 44 14 92 82 12 94 24 98 72 86 84 86 68 66 80 66 76 86 40 6 96 94 80 86 76 66 100 86 52 66 12 94 44 98 80 66 40 50 52 34 24 14 48 66 92 66 16 14 80 70 40 50 84 86 28 86 28 14 92 14 44 66 64 70 72 66 76 70 68 74 76 34 92 78 96 50 92 86 76 66 84 50 92 90 76 82 52 90 84 54 68 50 76 34 76 66 80 42 76 62 52 62 40 34 60 14 68 82 92 86 40 34 92 66 76 26 76 54 92 50 84 66 80 14 92 82 100 38 100 14 92 14 60 70 76 98 92 38 92 70 92 82 96 74 44 86 92 74 96 70 76 34 92 14 24 86 92 90 24 14 8 74 60 86 80 78 76 54 24 34 96 58 76 94 12 66 96 90 92 58 40 42 36 14 40 54 76 62 40 90 80 66 64 86 92 62 80 14 92 78 40 26 92 94 56 86 40 38 28 74 76 86 92 70 76 22 76 14 40 78 60 70 88 86 40 90 24 78 92 94 40 38 72 22 76 50 76 94 92 34 40 18 40 78 8 34 76 78 8 34 100 74 96 42 84 98 24 70 40 74 96 70 40 74 60 58 76 50 40 94 76 38 44 70 96 94 92 98 96 82 76 94 60 78 92 74 24 46 96 74 48 90 76 50 92 94 92 82 40 82 44 98 40 50 44 10 80 94 24 90 28 70 80 58 60 18 24 86 8 74 96 38 44 46 100 94 100 86 64 94 8 62 96 38 24 94 92 38 64 66 60 74 24 90 44 86 24 70 72 54 76 2 76 58 36 34 64 86 100 82 92 98 56 66 76 70 100 70 76 70 32 54 76 70 64 62 44 46 96 78 28 70 28 66 100 42 100 98 96 86 100 74 24 81 95 57 95 41 63 5 67 1 95 81 19 89 79 29 99 57 79 93 59 1 27 93 79 81 79 89 95 1 95 97 95 65 95 1 95 77 71 1 27 93 95 21 95 1 95 21 63 77 71 1 99 77 79 1 95 57 95 1 87 21 79 9 83 57 95 81 79 1 51 85 95 21 95 5 95 65 51 85 95 93 95 61 95 89 83 77 95 57 95 81 23 73 95 57 95 1 83 93 95 45 95 73 95 93 95 65 95 25 95 21 79 69 83 41 95 1 99 89 79 21 95 21 95 25 79 61 95 61 39 53 79 53 95 93 79 93 99 73 99 81 91 97 95 73 79 9 75 53 79 85 79 41 99 41 11 81 95 1 27 93 95 21 59 5 79 53 95 97 79 89 91 5 27 57 63 45 95 5 79 41 83 61 99 37 99 61 99 61 95 61 55 69 27 25 95 53 63 93 67 29 27 1 95 85 79 89 11 41 95 41 63 89 95 53 99 57 27 97 95 93 27 85 95 97 99 97 79 57 47 69 27 13 27 89 99 25 47 53 27 77 63 53 11 61 95 77 95 65 79 53 79 93 31 21 11 37 79 89 27 21 7 89 55 53 47 77 63 97 63 81 47 85 47 97 79 29 67 29 91 73 47 89 63 85 63 73 31 53 15 53 99 41 95 53 99 89 99 53 79 53 67 89 63 21 95 73 91 93 83 1 87 53 95 73 99 53 99 85 63 77 75 89 95 85 99 21 91 37 79 73 67 53 67 53 27 37 95 89 99 85 99 37 83 77 47 61 31 89 95 89 99 77 91 73 99 89 15 89 67 53 63 53 59 73 11 73 79 53 63 37 19 53 47 73 15 37 67 89 51 49 63 73 99 61 43 89 79 49 71 97 47 53 87 37 19 37 99 45 99 53 63 53 83 45 99 37 63 69 31 37 63 9 47 37 79 77 67 53 83 73 51 61 87 37 35 53 16 94 24 66 12 2 44 70 40 66 60 66 92 58 100 66 72 66 20 18 64 50 60 66 60 66 80 74 8 86 44 66 100 38 60 14 84 54 92 18 40 66 44 66 32 70 92 54 92 66 92 86 80 66 92 86 20 90 92 78 100 14 92 66 40 66 64 86 92 66 12 34 92 50 84 26 40 50 52 86 92 66 76 66 84 50 24 66 44 62 96 66 96 66 100 66 96 70 76 50 60 14 76 50 84 66 68 62 44 50 84 46 92 90 96 58 44 34 60 14 80 86 52 6 92 14 76 14 92 14 92 66 40 50 84 86 28 86 100 50 92 34 76 54 92 14 88 66 96 94 92 90 92 66 96 90 48 26 92 18 96 90 92 14 92 90 92 94 92 50 92 90 44 66 92 86 40 14 60 66 84 94 92 50 28 42 92 66 92 14 92 98 40 50 8 14 100 54 84 50 92 14 92 90 76 50 64 82 48 86 36 90 40 98 76 50 92 90 92 50 92 66 40 78 44 54 40 10 92 78 88 58 40 98 40 54 92 54 92 50 92 18 80 66 92 82 100 18 60 10 24 90 100 50 40 66 72 98 40 58 40 34 40 70 12 34 92 78 80 66 80 58 28 38 40 26 76 34 100 90 44 66 60 70 40 94 100 50 88 34 92 50 92 14 52 86 24 94 96 18 76 42 96 66 80 70 40 58 28 70 96 70 92 46 8 50 52 54 8 46 100 98 44 46 24 86 64 62 48 94 64 46 96 10 60 54 76 66 40 82 64 34 92 42 24 62 64 22 88 82 24 62 28 74 96 82 96 66 60 94 44 86 96 58 40 42 80 2 96 62 92 70 60 46 8 70 80 34 24 94 44 26 8 74 100 98 80 30 28 78 36 94 72 38 96 86 64 10 84 82 68 10 96 94 64 98 60 46 8 46 40 70 24 6 76 38 92 26 76 46 80 90 96 78 64 70 96 57 95 81 99 77 95 1 83 85 79 21 79 1 95 97 95 57 83 77 95 81 95 57 95 1 95 1 95 97 95 9 95 1 95 1 95 5 95 77 47 1 95 1 95 25 95 1 83 5 79 73 63 41 79 77 95 1 95 21 95 1 95 33 95 5 87 57 95 69 95 29 95 1 95 1 95 57 99 21 95 77 79 93 79 41 79 1 27 1 95 93 95 93 95 93 27 81 79 93 11 41 95 41 99 1 95 21 79 41 95 93 87 89 95 97 67 93 95 1 27 61 79 81 79 77 95 93 95 57 79 61 87 77 95 41 79 69 79 57 83 61 99 5 63 61 99 1 79 49 95 41 79 1 99 77 63 21 79 97 27 21 83 73 79 97 63 29 95 85 63 61 27 77 79 81 99 89 83 29 95 93 99 77 95 65 83 21 39 69 99 41 83 77 83 93 79 89 95 93 63 9 27 53 83 89 79 65 11 57 63 89 83 57 63 57 79 61 31 9 79 21 95 69 83 89 79 29 31 77 79 21 27 9 27 97 51 81 95 97 71 37 95 53 23 53 31 89 47 53 51 53 99 89 99 97 43 69 63 41 11 53 27 57 95 89 47 89 27 89 83 21 47 89 99 97 3 37 63 9 63 85 63 73 79 33 63 5 67 89 11 37 79 53 19 25 63 89 47 61 95 53 71 37 87 53 3 53 83 89 67 97 91 69 23 89 79 93 47 37 47 89 83 61 55 89 63 21 99 93 75 53 67 73 83 25 51 53 87 53 91 57 11 89 95 73 95 53 95 53 67 37 95 37 67 57 83 93 3 89 11 93 63 89 63 89 47 65 47 73 67 53 35 25 71 53 31 37 55 33 71 89 35 53 91 45 95 53 99 37 63 73 15 37 67 73 71 97 27 37 91 89 67 89 67 53 87 37 63 53 95 69 31 65 83 65 87 25 71 25 27 53 23 85 15 37 99 37 52 86 56 86 84 86 48 66 88 66 44 74 84 42 76 70 88 66 96 66 68 34 84 66 76 66 96 86 100 70 76 66 96 70 80 30 68 50 40 14 52 50 32 34 96 66 92 86 84 66 92 70 64 66 96 82 80 54 40 98 92 66 76 66 92 86 76 86 72 34 36 66 68 74 96 74 32 70 48 62 84 66 48 66 16 50 80 66 92 70 92 66 96 14 88 14 92 70 72 34 60 66 24 50 96 86 84 66 92 66 76 66 92 86 92 70 96 14 96 66 92 70 92 18 96 66 76 14 8 66 76 90 96 14 84 94 96 34 28 34 96 74 92 66 92 62 52 70 84 86 92 70 92 74 92 70 60 14 92 74 92 14 24 74 40 10 80 66 92 14 92 58 80 90 92 82 96 62 100 66 76 70 76 58 76 6 72 50 92 86 56 58 96 6 40 18 92 82 44 90 84 90 92 50 40 90 96 94 92 90 40 70 92 94 76 74 48 66 76 14 28 90 92 74 76 42 96 50 76 58 40 38 76 34 24 86 80 70 76 42 76 74 76 38 32 50 40 78 96 10 92 86 96 98 80 34 8 62 24 86 92 86 60 86 40 90 40 18 24 86 96 98 76 54 92 38 40 70 100 74 24 54 40 82 92 82 40 74 60 90 8 94 24 46 96 70 60 22 92 62 96 26 64 42 92 66 96 54 92 86 92 38 40 54 40 94 80 86 64 98 24 98 44 58 76 86 60 90 44 78 76 46 88 14 24 46 76 22 64 50 92 18 24 98 60 58 96 66 80 98 80 34 68 58 84 22 92 82 44 58 28 74 80 94 60 70 80 58 80 98 24 22 40 14 60 78 96 34 80 70 68 94 96 86 8 2 96 46 4 14 92 90 64 74 8 14 60 98 100 82 8 90 80 98 100 6 36 98 80 82 36 82 72 78 40 66 88 18 24 62 8 82 60 94 80 94 8 77 95 57 79 77 59 1 95 81 27 61 99 1 95 97 99 93 95 93 95 1 63 57 95 93 99 61 95 93 83 41 79 1 95 1 95 21 19 1 95 1 95 57 95 65 95 1 79 77 95 77 83 93 95 1 67 53 95 41 95 1 95 1 27 93 83 93 95 77 95 93 47 1 95 1 95 93 95 1 95 93 63 93 71 93 67 5 95 57 47 93 95 53 95 53 99 5 83 81 95 57 95 1 95 21 79 53 19 97 79 97 95 77 95 93 95 65 95 85 99 77 95 85 95 69 79 25 95 53 99 97 63 93 27 1 95 77 99 1 95 41 11 45 79 69 71 9 27 1 63 61 79 45 99 41 99 41 63 1 23 81 27 77 27 93 11 93 79 93 79 45 99 37 99 77 47 25 79 85 27 5 15 93 95 49 35 53 99 93 99 1 79 41 75 85 27 9 55 89 95 53 63 45 31 93 79 41 83 41 99 61 83 77 95 85 47 57 63 1 99 89 47 53 71 77 83 45 95 41 71 89 47 41 83 21 27 53 11 37 83 81 63 65 75 89 47 89 11 85 67 97 47 41 63 25 63 93 31 53 83 41 87 65 3 93 79 89 99 65 95 97 47 81 95 5 63 89 19 97 79 89 67 85 47 33 27 37 63 89 63 73 83 13 47 61 47 73 95 81 15 81 67 53 55 69 79 77 99 81 79 53 99 73 67 37 11 85 79 37 83 53 95 89 63 73 79 45 31 73 83 89 95 53 71 97 35 53 71 53 15 89 99 89 99 53 83 33 67 41 99 53 79 37 87 53 67 77 67 89 79 37 39 77 55 77 99 37 99 85 47 37 67 37 55 85 43 77 47 89 83 89 79 53 47 73 67 69 67 97 31 89 55 73 11 73 91 37 47 89 63 77 35 73 79 97 91 53 95 77 99 13 71 53 71 1 11 53 31 73 95 37 19 49 39 57 79 53 88 66 84 74 92 66 100 66 40 66 80 66 32 14 44 66 88 66 92 66 92 66 52 66 80 98 96 66 92 50 48 70 100 50 100 90 88 66 48 66 60 66 96 50 88 66 100 66 8 86 12 50 24 70 76 46 92 86 76 50 72 90 68 46 48 66 92 86 96 66 92 66 68 66 60 50 100 50 20 66 96 66 92 70 8 78 48 66 68 50 100 86 88 66 80 66 48 54 8 58 16 66 44 34 24 66 92 50 80 66 96 94 60 86 32 66 92 14 92 50 68 86 100 66 76 66 92 14 92 14 92 70 92 70 60 86 28 66 44 50 76 66 64 74 92 34 76 70 32 14 92 66 48 86 76 74 92 86 100 90 76 78 40 62 76 70 24 66 84 90 92 70 24 82 96 14 92 54 88 86 92 58 92 90 100 94 60 62 40 34 96 86 76 50 92 94 92 18 76 50 92 46 40 98 60 66 92 90 40 90 80 78 92 86 80 50 52 22 92 94 92 50 40 90 24 98 76 62 80 34 80 54 80 18 92 50 88 14 92 38 96 34 92 74 44 82 76 42 76 42 40 86 92 66 96 50 68 10 92 34 40 98 40 10 100 42 76 50 72 34 92 70 84 2 60 70 100 18 28 18 60 98 40 86 28 90 64 50 80 70 92 54 40 46 100 34 96 70 8 38 76 94 8 74 92 38 76 38 80 26 76 86 44 30 44 86 76 94 40 2 24 78 28 74 60 62 8 86 96 66 80 22 64 90 52 14 80 54 88 98 92 90 76 34 92 18 40 94 92 58 24 70 40 58 68 58 24 86 60 78 96 62 8 14 44 38 80 94 24 98 60 6 44 6 44 86 60 70 96 98 76 98 100 90 60 54 76 66 44 94 8 42 96 2 40 42 12 74 40 98 64 42 80 66 96 58 44 70 8 62 100 50 28 2 44 54 96 26 96 82 44 70 80 74 44 98 96 57 95 93 87 57 83 93 67 57 47 1 99 41 99 73 51 1 99 1 83 1 79 1 99 1 95 85 55 1 63 97 63 21 67 77 95 77 95 89 95 57 95 93 95 61 79 1 99 93 95 1 95 21 99 53 95 93 95 1 95 77 79 5 95 73 95 1 79 1 95 1 63 21 79 57 95 41 95 93 95 57 59 65 15 77 67 73 79 57 95 85 79 21 95 77 63 21 95 93 63 77 95 81 83 77 95 1 95 93 79 73 95 25 79 61 95 89 95 5 83 61 63 1 95 81 15 57 95 61 79 61 95 45 95 41 79 29 71 29 95 93 79 29 79 57 79 77 79 77 95 5 31 89 95 81 27 93 83 57 47 53 79 85 99 89 95 57 83 25 79 97 79 85 99 13 91 41 63 89 99 5 83 93 95 53 83 93 99 53 83 53 27 93 67 57 47 37 51 69 11 41 91 21 27 29 27 73 55 21 11 89 63 53 11 97 99 5 95 89 47 61 99 85 79 41 47 89 83 53 67 53 83 53 11 61 27 97 67 73 79 1 11 29 79 89 47 89 79 81 63 85 47 93 63 89 11 93 63 53 99 53 79 89 91 81 47 77 83 93 67 53 99 89 47 89 83 77 99 37 75 45 63 97 75 89 79 81 11 53 99 89 99 73 67 53 15 53 51 37 99 53 51 53 83 89 63 53 35 69 87 89 11 97 75 21 95 73 99 89 83 53 95 37 87 53 79 89 71 89 15 53 11 81 67 89 75 37 15 61 47 53 55 1 95 53 23 73 79 89 15 53 91 29 71 73 51 85 91 49 83 97 91 53 67 65 79 37 47 73 83 37 63 53 79 97 15 73 31 65 95 85 95 93 99 53 71 93 83 61 83 89 51 49 87 37 63 25 59 89 87 89 31 53 31 73 91 53 63 89 11 9 95 53 87 57 79 25 91 37 79 69 19 61 63 53 19 53 96 70 92 66 92 50 56 66 44 66 8 86 84 66 64 70 68 66 96 50 76 46 24 66 60 86 88 86 32 50 84 90 76 66 84 70 36 66 40 50 100 66 84 66 60 54 84 90 68 70 44 66 68 66 48 66 92 50 84 66 100 66 40 66 48 14 96 66 76 50 92 66 96 50 96 66 40 62 76 66 96 66 96 46 92 66 92 34 16 66 92 14 92 82 96 66 64 90 96 66 92 14 92 86 64 66 48 22 40 50 36 14 16 90 32 66 92 14 80 14 92 66 92 14 92 66 96 62 92 66 56 86 36 50 92 50 92 66 92 14 88 34 92 66 28 82 28 50 96 50 56 14 76 14 92 90 92 78 92 18 92 50 92 66 44 38 96 86 40 90 92 82 44 90 40 98 20 14 96 14 76 18 28 66 8 66 60 22 52 50 48 78 92 6 92 70 40 66 60 50 12 18 48 90 92 90 76 38 76 86 92 98 92 50 60 66 60 78 92 90 24 58 96 82 92 54 40 38 48 94 96 46 92 90 92 18 76 14 24 94 40 26 92 70 36 90 76 34 40 18 40 94 96 90 92 54 40 22 68 78 40 90 84 82 76 50 44 86 76 50 88 94 40 90 40 90 96 70 64 70 44 50 8 66 76 90 72 54 92 66 40 86 8 94 44 22 40 94 92 98 44 90 24 90 8 78 60 86 76 70 24 66 40 38 100 14 76 14 44 58 92 46 8 94 68 94 24 90 64 42 28 86 8 98 48 42 76 18 76 62 44 82 64 38 76 82 76 70 84 82 8 86 44 50 96 58 60 50 76 86 60 58 96 66 92 94 64 66 8 62 92 82 96 38 100 70 60 78 40 58 76 74 64 6 64 70 96 74 8 70 8 90 88 82 60 90 60 78 96 90 80 70 4 66 56 66 28 86 76 58 60 66 100 94 76 70 60 94 60 34 60 70 92 18 28 34 24 93 95 73 79 1 63 93 83 1 95 57 79 21 95 1 95 1 99 93 71 1 95 1 95 57 95 77 95 85 95 41 95 5 95 5 95 1 83 1 51 21 63 93 63 1 7 1 95 1 95 1 95 73 95 1 95 93 99 77 79 41 95 57 95 1 95 61 79 21 95 1 35 57 95 93 83 93 95 93 79 57 95 21 95 85 95 1 79 1 83 1 79 41 99 21 95 77 95 45 95 61 63 41 95 85 83 21 79 65 27 1 79 73 95 57 95 93 95 69 95 1 79 89 99 41 27 57 95 81 79 77 95 93 79 89 79 41 63 69 95 21 79 41 79 45 79 41 99 77 27 1 95 85 95 1 95 33 95 21 79 89 63 5 95 81 63 73 99 25 27 89 95 81 79 93 79 41 27 77 11 37 47 89 95 5 83 37 47 97 27 49 99 21 99 61 79 53 51 41 47 81 11 85 27 77 99 57 63 77 27 37 63 21 99 53 99 9 67 65 79 41 95 89 47 73 27 53 63 5 83 65 95 89 27 65 79 37 63 61 27 45 95 53 47 25 99 73 63 69 47 21 79 77 51 85 15 89 63 73 63 89 63 53 11 73 83 9 67 53 87 89 99 29 23 89 31 89 99 77 87 85 75 65 63 53 63 61 63 69 47 37 99 29 87 89 71 97 83 53 83 49 79 89 99 53 71 73 51 61 63 1 15 33 99 57 31 53 79 89 71 33 19 89 51 89 31 53 27 89 83 17 71 73 35 89 55 69 51 37 79 53 31 89 71 85 71 37 79 89 51 73 43 37 27 53 47 53 27 37 47 53 79 53 67 61 67 53 95 37 71 73 79 49 71 85 51 89 51 89 7 89 87 89 95 97 63 37 67 73 99 73 51 57 75 81 67 37 47 97 47 37 27 9 95 73 63 73 79 93 67 61 87 69 47 53 71 93 27 65 75 89 95 61 39 37 59 73 60 70 52 66 84 50 52 98 52 94 60 14 48 66 48 86 96 86 88 66 52 50 68 66 8 66 76 66 92 54 92 98 24 66 76 74 28 14 96 70 8 58 92 70 96 90 84 90 84 66 8 66 92 54 80 66 88 66 84 66 92 86 96 66 24 34 84 66 40 66 76 14 32 86 92 66 48 50 68 66 20 42 76 86 96 66 44 14 76 66 48 34 24 86 76 14 96 86 92 50 76 26 88 90 48 14 76 86 72 66 76 66 72 46 40 70 88 18 64 78 92 94 92 86 12 2 92 14 72 66 76 14 64 14 76 90 84 70 92 50 92 38 36 82 88 82 92 6 48 50 92 14 64 34 96 82 92 14 84 98 96 34 44 54 92 34 68 86 92 14 92 50 76 86 76 70 92 82 76 86 40 86 92 98 92 90 84 42 96 54 84 66 92 54 60 50 92 50 76 14 40 66 64 34 88 54 96 66 76 50 64 74 24 34 92 98 92 90 40 98 76 10 92 50 92 70 80 90 92 54 96 50 92 14 92 86 24 34 92 54 40 38 96 34 40 98 92 82 80 74 92 66 68 54 64 94 80 66 40 90 40 90 40 70 80 18 44 90 92 18 60 34 96 58 68 62 76 34 96 74 60 82 84 98 60 66 44 86 40 14 24 90 44 2 40 94 24 42 44 18 40 86 40 42 96 42 92 46 44 94 32 18 60 34 24 26 88 98 44 54 60 62 92 82 48 22 60 98 64 66 40 30 44 50 40 66 76 94 48 62 72 38 44 38 92 82 40 58 96 82 60 90 64 6 76 74 28 90 40 46 84 74 100 86 64 6 44 94 8 50 8 74 24 98 100 86 24 62 28 30 44 82 40 54 16 66 80 98 4 82 96 18 100 70 60 10 44 74 100 66 4 34 40 38 36 74 100 42 84 94 92 46 92 34 44 82 100 18 68 98 64 62 40 42 24 70 84 1 79 61 99 21 79 41 47 57 79 57 95 1 95 57 83 21 95 1 79 65 63 1 79 1 27 85 95 21 79 1 35 1 95 1 95 1 99 1 95 77 63 61 95 5 95 1 95 57 27 65 95 9 95 57 95 41 95 45 99 93 47 1 79 73 79 57 95 93 95 1 95 93 99 53 95 1 95 77 95 97 95 93 95 1 95 21 95 1 63 93 95 57 95 5 95 81 95 9 95 61 91 21 95 1 63 41 79 9 99 93 79 49 99 77 99 93 95 77 79 1 99 21 79 29 79 49 99 65 79 57 27 33 95 93 79 9 79 5 95 5 83 21 83 21 79 77 99 77 79 93 27 69 95 29 51 97 83 1 83 65 27 81 63 45 95 1 95 37 79 89 63 97 95 93 99 1 79 9 11 97 27 1 27 73 63 65 99 53 79 85 79 97 27 97 27 69 27 89 79 37 27 81 11 77 99 57 79 21 35 93 27 93 55 53 63 61 99 97 63 69 83 93 11 61 55 73 95 97 67 89 79 49 59 13 27 41 11 73 79 37 63 21 95 65 95 57 63 81 11 57 23 93 99 89 79 89 51 73 83 93 99 93 27 89 47 89 83 53 91 5 91 41 47 89 87 37 83 53 67 97 55 41 27 53 83 89 47 89 63 37 11 89 95 53 99 89 79 89 31 73 79 53 83 77 83 89 95 81 11 73 71 33 95 93 39 53 67 89 27 53 99 65 91 93 87 37 19 65 95 93 79 53 99 89 75 21 63 37 91 89 95 89 87 89 63 89 75 53 19 37 15 53 63 85 19 53 11 89 99 73 55 73 79 89 15 89 91 89 67 53 35 53 99 85 55 69 55 89 47 37 95 53 55 53 47 93 79 21 35 93 15 53 95 73 63 53 99 53 99 53 83 73 35 73 87 37 99 37 51 85 11 89 55 89 91 57 99 37 83 89 71 41 99 53 67 89 92 50 64 70 48 90 48 66 60 66 92 66 24 66 28 66 92 90 68 74 68 70 80 90 88 50 68 66 32 66 92 90 28 14 52 94 68 94 28 66 44 50 96 66 92 50 52 66 92 70 64 90 32 50 92 58 100 66 80 50 92 66 92 66 92 66 72 66 80 66 92 70 96 66 44 70 28 66 84 70 60 34 100 50 40 66 32 50 12 66 20 94 52 86 100 14 72 66 100 66 84 66 48 86 96 14 76 50 36 82 80 50 100 2 40 54 92 94 92 66 76 14 60 14 24 66 88 50 92 34 60 14 92 50 92 14 32 78 80 70 92 90 24 38 92 14 92 50 28 98 68 14 76 50 92 34 96 86 92 98 76 54 92 38 52 14 20 86 92 70 92 78 76 54 76 86 92 2 64 90 96 82 76 14 80 70 76 66 60 14 96 86 96 86 40 34 92 14 44 34 60 54 92 54 76 86 92 86 96 14 76 50 92 38 60 38 92 66 40 10 76 98 96 34 40 86 40 74 96 66 40 58 40 42 40 50 24 18 76 86 92 18 92 50 60 90 40 66 44 74 96 54 40 50 24 66 96 94 40 74 40 34 24 50 40 70 76 10 76 6 24 58 40 62 40 98 92 10 24 34 24 86 76 90 96 46 76 62 80 66 8 42 76 98 52 38 92 74 92 94 96 22 76 54 8 94 28 82 40 54 8 50 28 74 24 54 8 86 40 90 96 98 40 34 64 38 24 78 44 58 40 86 96 34 24 82 92 78 88 78 96 50 56 22 80 6 80 34 96 46 24 58 28 94 40 66 96 94 24 14 92 98 60 86 60 50 76 98 64 34 64 74 76 86 28 74 76 2 96 38 100 82 96 98 8 74 24 98 100 38 60 18 24 42 60 38 100 26 100 54 80 82 12 46 92 50 100 74 96 74 28 82 80 38 60 70 40 94 76 62 68 46 28 90 96 98 60 21 95 97 63 1 95 21 95 41 95 1 95 77 95 1 83 45 95 9 95 77 99 61 95 1 99 1 95 77 95 1 95 57 95 13 95 1 95 1 79 21 95 1 95 21 95 57 99 1 27 1 99 1 79 1 95 85 95 61 95 81 95 21 95 1 95 21 95 1 79 93 79 1 95 37 95 9 95 57 95 21 95 41 95 61 79 93 95 41 95 77 95 57 79 61 95 21 99 57 79 77 79 93 95 93 79 97 95 21 95 57 79 65 79 89 63 41 79 85 79 77 95 21 99 53 63 57 79 49 95 77 83 85 95 1 95 1 95 93 19 45 95 65 99 93 95 93 79 57 79 61 95 45 67 93 63 1 95 57 79 25 67 97 31 57 79 93 47 1 79 93 79 5 95 53 79 77 79 9 79 97 99 89 63 1 63 73 27 61 11 41 27 89 95 65 79 81 11 93 83 53 99 73 99 81 11 77 99 1 27 53 59 89 19 41 99 73 47 85 35 77 99 45 63 57 47 33 63 41 63 53 63 89 95 53 47 5 27 77 47 97 79 89 11 29 99 57 27 1 83 93 27 13 95 89 23 53 87 89 83 73 51 89 51 93 83 29 15 53 55 89 11 9 15 89 83 53 67 29 47 73 11 97 47 61 11 89 75 53 11 53 99 89 27 89 67 89 31 37 3 81 27 73 15 89 67 53 11 77 27 53 51 53 99 89 87 53 31 85 47 89 47 73 83 89 67 65 91 29 35 33 71 41 95 53 47 89 87 53 51 89 11 37 71 53 99 53 71 81 75 53 87 65 47 9 67 53 51 89 83 53 31 25 15 37 51 37 95 53 83 73 83 37 95 97 95 69 47 73 83 21 23 53 79 37 91 89 35 37 99 53 47 45 63 89 67 97 87 37 99 37 71 37 87 69 95 37 99 61 83 69 95 73 11 45 55 37 55 73 87 69 83 69 95 93 71 81 68 90 92 86 24 86 64 34 100 42 76 74 68 46 48 66 100 90 100 90 48 50 28 66 60 50 68 66 36 66 44 86 72 54 80 86 100 66 92 66 92 66 84 66 24 50 84 86 84 66 60 38 80 86 48 66 84 50 100 50 76 66 64 90 76 14 36 70 96 50 40 66 80 50 92 66 84 90 52 86 100 14 80 50 68 66 80 66 44 66 84 14 24 94 60 90 96 62 92 50 96 66 24 14 92 50 40 70 92 86 92 34 88 14 92 14 84 50 60 66 16 66 40 66 64 50 20 66 96 94 68 86 92 14 80 74 92 86 60 14 64 50 76 86 96 66 92 14 96 14 76 50 88 66 24 10 28 62 92 34 92 66 64 86 40 90 92 86 40 66 92 66 92 66 60 90 92 34 28 74 92 66 40 74 92 2 76 94 80 66 40 30 76 38 76 86 8 54 28 70 68 74 76 66 92 94 76 34 88 86 96 66 92 98 76 90 92 10 92 62 76 18 92 50 96 66 76 70 76 18 40 38 92 14 40 34 76 34 80 50 20 62 28 58 20 74 92 70 76 98 92 74 80 70 40 90 28 86 80 46 92 54 76 14 100 90 40 82 40 82 60 74 92 18 88 66 40 50 60 42 56 66 60 66 60 2 100 70 96 26 76 54 92 38 96 74 40 66 24 46 24 54 24 18 92 2 8 90 52 74 40 14 60 98 40 6 92 26 24 74 80 90 60 90 24 14 40 74 24 54 96 94 60 42 60 54 96 22 64 90 64 94 24 46 80 94 80 74 40 82 24 62 76 38 40 26 60 66 20 62 64 34 64 42 64 94 92 98 40 82 40 70 40 62 40 34 24 94 92 78 60 14 56 38 64 74 44 82 8 82 96 82 100 98 100 62 60 58 96 38 72 94 44 98 96 98 88 58 40 58 24 74 92 10 8 30 8 98 92 94 88 90 92 62 96 58 96 1 79 1 95 97 67 69 95 1 95 85 95 77 95 25 63 93 95 89 79 1 79 1 95 41 95 21 95 1 99 1 87 1 95 21 95 93 31 61 95 1 95 1 95 57 95 5 95 21 83 1 99 29 99 1 95 77 95 81 95 1 95 1 95 49 67 93 95 1 95 77 95 1 95 93 95 89 95 21 95 1 95 97 95 57 95 41 95 57 63 65 95 1 95 61 63 25 95 13 95 89 95 85 95 93 27 97 79 57 79 41 95 61 79 97 95 53 95 85 95 77 95 1 95 21 95 61 95 77 99 1 95 85 95 97 95 93 95 85 95 97 63 89 95 61 79 41 35 29 79 9 99 93 99 57 63 61 95 61 27 1 27 1 79 45 27 45 27 61 79 81 27 53 83 89 95 93 63 5 79 97 99 85 27 53 79 73 63 81 43 97 27 89 79 5 47 89 79 73 63 85 79 57 79 93 27 41 95 49 63 93 27 9 79 57 35 1 99 73 27 77 95 41 83 81 63 61 63 65 79 25 7 57 47 73 79 89 79 77 79 37 79 81 67 5 47 37 95 93 63 5 79 45 31 89 79 49 99 57 99 89 31 61 27 97 63 57 75 81 11 73 67 73 83 53 63 49 15 89 27 53 11 37 55 37 11 81 79 85 83 93 47 89 63 37 83 97 31 81 15 89 67 89 47 89 83 37 63 29 95 93 95 89 79 37 79 89 63 53 99 53 99 37 67 49 79 89 87 89 35 37 63 17 47 89 47 89 91 73 31 89 71 53 99 5 83 53 99 61 63 81 83 53 79 85 67 89 31 37 71 93 47 5 11 37 47 53 35 77 43 89 95 37 95 53 51 73 83 53 47 53 83 37 55 37 95 41 87 61 47 73 19 37 71 77 71 81 27 89 47 37 87 89 79 37 91 73 47 69 79 65 35 53 95 89 23 57 11 37 91 89 19 89 43 73 91 93 92 66 64 66 100 42 80 66 68 86 96 78 16 66 72 50 56 66 88 66 96 66 96 50 88 54 48 74 20 74 76 14 96 90 88 66 88 90 100 66 92 66 100 66 52 66 16 14 84 66 12 66 40 66 84 66 76 38 60 66 40 70 32 50 76 66 48 66 44 66 64 34 40 86 8 66 92 66 92 66 40 46 96 70 92 14 68 66 92 86 92 70 96 50 20 18 16 94 92 66 92 90 96 78 76 86 76 90 84 86 100 86 76 86 72 86 92 14 40 54 76 14 92 86 92 50 68 50 76 66 76 50 96 50 92 90 40 90 92 14 92 18 96 2 40 38 92 70 64 54 96 66 92 66 92 74 76 62 92 58 76 34 76 50 76 34 92 58 60 94 92 66 92 54 40 86 92 58 92 34 60 54 100 74 96 50 92 66 92 66 92 86 96 66 92 50 76 34 76 66 76 66 96 86 92 86 40 86 92 34 92 70 92 70 68 18 76 14 92 90 92 86 80 66 76 66 92 98 16 18 96 98 60 54 40 34 24 98 40 2 40 90 60 14 76 26 44 82 40 38 40 86 92 94 92 90 80 58 76 86 16 54 8 14 76 30 20 2 44 58 92 70 8 98 80 62 36 38 24 90 96 38 92 54 92 94 80 66 68 74 64 94 40 86 40 66 100 2 96 58 92 38 96 6 28 42 60 82 60 34 76 70 76 18 96 70 92 34 80 98 8 66 28 90 8 34 40 50 96 82 40 94 96 94 76 86 28 42 64 78 60 74 40 98 24 50 76 90 96 82 40 86 96 90 24 98 96 62 96 74 76 94 100 90 76 86 100 90 24 18 28 78 60 66 64 66 92 70 100 58 60 86 80 98 72 46 76 26 76 74 100 54 76 98 24 62 80 38 8 98 92 90 64 82 48 98 8 94 60 46 92 10 76 46 40 86 60 78 28 10 100 86 72 98 64 10 64 45 95 1 95 81 95 1 71 1 27 57 11 93 63 1 79 93 99 1 95 1 95 1 95 81 67 1 95 93 31 1 87 21 95 1 99 1 95 93 83 5 63 21 95 25 95 1 95 77 79 97 95 1 79 85 63 25 79 21 95 1 95 5 95 69 95 93 95 89 95 37 95 29 95 57 67 21 95 97 47 89 95 29 95 97 27 81 95 61 95 1 95 41 95 97 95 65 95 21 99 29 95 57 47 73 95 57 79 93 11 21 95 5 95 61 95 33 95 61 95 89 95 77 63 57 79 57 95 81 95 89 99 1 95 93 79 57 99 49 95 97 27 97 99 21 79 41 63 49 63 25 91 49 79 61 79 97 83 13 87 57 7 93 99 77 79 41 95 77 67 13 63 77 27 93 63 73 95 77 35 57 79 61 99 93 31 77 27 5 63 81 63 77 99 29 27 97 99 93 79 77 11 21 27 97 31 69 87 49 11 41 67 57 27 93 63 97 83 45 27 41 67 37 79 61 99 37 83 89 99 53 79 89 87 53 67 53 99 89 87 89 27 85 27 33 91 81 95 97 99 57 31 81 83 73 67 65 99 53 99 65 67 37 71 97 27 93 67 89 99 37 87 93 27 89 87 89 31 53 87 93 31 85 19 89 99 41 63 53 95 53 87 37 19 73 87 5 63 73 67 89 71 37 35 53 51 53 87 53 11 65 47 73 15 61 99 57 47 89 55 37 47 89 63 81 55 53 11 53 63 89 67 61 63 29 99 73 15 37 55 25 11 89 79 1 87 53 11 89 83 37 95 77 95 89 51 93 47 73 27 53 99 53 99 89 27 53 47 37 11 97 63 73 87 53 75 25 99 53 47 89 95 53 87 25 95 73 11 81 91 53 47 53 91 53 91 45 67 45 99 89 39 25 47 37 71 81 71 29 83 97 43 73 71 73 67 53 15 21 95 73 67 73 79 81 51 45 52 86 8 18 92 58 52 86 56 66 68 30 92 66 32 66 72 70 96 90 32 86 52 66 84 66 64 78 92 66 92 66 88 50 76 50 16 86 60 86 76 66 84 34 92 62 68 50 4 14 96 18 40 66 12 54 96 70 36 50 76 66 100 66 68 30 40 66 92 50 28 66 100 86 64 50 92 34 76 50 96 86 84 54 92 66 80 58 84 66 40 66 92 42 36 66 52 54 84 66 40 66 92 98 76 14 92 90 92 14 76 14 92 82 92 50 92 66 96 50 84 14 64 66 76 66 60 18 40 50 92 58 92 86 60 34 96 18 80 78 16 50 68 34 92 26 76 66 92 14 76 70 44 14 20 54 48 14 60 98 92 70 28 82 88 66 92 94 88 78 16 94 76 50 60 82 92 86 92 82 92 50 92 62 8 54 92 86 92 34 24 94 92 90 92 98 40 34 60 54 60 70 76 90 92 78 92 38 92 18 92 90 40 42 92 86 92 98 92 54 40 34 92 62 40 82 8 54 76 86 40 38 100 34 96 70 64 70 28 74 40 22 96 86 40 66 80 86 24 82 64 66 76 58 76 90 76 90 40 58 60 54 76 82 88 34 40 94 24 70 40 2 40 94 40 2 92 90 60 94 92 54 92 86 92 14 40 34 32 82 76 94 44 90 92 78 40 54 92 90 60 46 92 74 68 46 40 70 24 86 40 78 52 90 64 70 96 58 96 6 92 86 64 6 96 14 24 66 24 50 40 86 28 38 100 66 40 70 44 74 76 78 96 34 96 34 64 54 80 42 40 70 100 86 24 74 60 82 48 46 60 78 76 50 100 6 96 94 96 46 28 74 76 46 60 18 28 74 8 98 60 90 44 38 24 86 64 94 96 98 44 54 72 78 60 90 96 78 76 46 80 50 60 18 100 94 28 74 72 94 76 18 64 38 48 82 60 98 8 94 64 26 76 82 68 46 100 5 79 93 95 93 19 1 95 93 95 81 99 1 95 85 55 65 99 85 95 1 79 1 95 65 83 1 95 57 95 1 67 1 67 93 99 77 99 1 63 57 79 1 95 93 91 1 83 1 95 1 95 1 95 1 95 93 95 1 95 21 95 57 79 1 95 57 95 93 95 93 79 77 47 1 95 77 95 41 95 93 95 21 95 1 59 1 95 69 95 93 95 37 95 41 95 89 63 21 95 21 95 97 95 21 95 57 95 57 95 21 95 93 63 57 95 93 95 61 79 77 95 25 95 77 79 53 83 93 47 77 79 81 63 93 95 45 95 41 79 93 63 57 95 93 99 77 27 73 79 69 95 93 95 97 99 49 79 77 79 5 47 93 27 17 95 45 27 13 27 57 27 41 79 53 79 45 11 93 63 41 27 93 83 41 95 5 95 89 95 25 79 73 99 57 27 65 27 89 99 53 59 89 27 93 79 41 75 73 67 81 79 81 99 61 3 81 79 81 83 53 83 77 63 89 79 57 79 53 27 81 99 77 63 89 11 65 51 89 79 73 91 85 71 89 31 81 79 61 99 93 95 73 91 37 47 97 83 53 27 53 99 61 63 89 43 89 27 89 99 49 11 53 87 41 51 37 99 53 67 53 83 57 63 81 83 57 67 53 83 49 11 37 27 89 67 93 99 29 95 89 47 37 47 77 55 53 83 25 11 53 83 73 51 85 11 53 59 37 51 53 35 89 63 53 35 73 15 37 87 61 67 53 27 37 95 53 95 53 95 53 47 53 87 73 71 37 19 5 47 53 63 53 7 53 63 53 91 37 95 37 99 53 79 9 51 89 35 37 83 37 47 9 83 53 71 89 55 37 71 53 83 53 99 77 35 1 51 81 31 29 91 73 99 89 99 53 71 49 63 89 39 57 51 37 47 37 79 73 7 73 91 37 83 53 83 21 67 89 99 73 31 37 91 73 79 73 92 14 32 58 48 66 84 54 96 66 84 74 80 34 92 86 100 18 88 90 12 86 60 38 100 66 48 66 96 66 88 86 92 14 84 66 48 50 84 66 84 82 64 50 92 50 92 66 100 66 88 86 96 50 24 66 68 86 60 66 56 66 92 14 92 66 92 14 84 66 92 86 8 66 32 38 68 82 44 66 96 78 24 94 76 86 92 34 92 18 92 66 92 14 92 86 92 66 64 14 68 14 100 66 92 14 36 14 64 90 40 66 92 66 60 38 76 14 24 86 40 14 12 90 96 50 24 50 88 34 92 50 96 66 48 78 84 66 40 50 92 86 96 14 16 66 76 14 92 18 92 70 64 90 44 34 96 14 72 34 24 94 84 50 68 66 76 86 84 62 100 70 76 62 92 98 92 94 44 34 84 34 92 34 64 70 92 70 76 42 92 34 64 14 32 86 76 70 60 58 92 90 60 98 24 10 100 14 92 22 76 26 92 18 92 94 40 18 100 58 92 86 76 38 24 86 40 62 68 46 92 74 64 94 92 66 92 94 76 86 40 78 44 38 76 86 92 90 76 82 76 66 92 34 40 34 28 94 76 78 96 58 92 62 40 70 60 86 40 82 60 94 76 38 92 54 24 98 24 82 24 54 92 34 60 34 96 54 92 70 60 18 64 86 40 46 44 90 64 54 24 90 40 98 36 98 24 2 92 86 28 82 80 26 96 54 44 70 80 18 88 2 24 74 92 94 40 38 40 90 100 74 96 86 8 66 44 74 96 54 36 78 64 54 60 58 40 14 52 22 76 38 24 86 44 78 80 82 80 94 60 82 44 62 100 86 96 86 96 22 92 94 60 26 44 54 40 74 8 70 60 38 64 46 80 66 8 58 60 86 64 54 92 54 76 98 24 82 80 94 92 46 44 62 60 70 80 14 88 46 20 90 24 82 44 22 24 94 64 90 80 74 68 86 8 78 76 1 95 73 63 93 99 57 95 57 95 81 95 65 71 25 99 1 79 57 95 1 95 61 95 21 95 1 83 21 95 1 95 41 27 93 23 1 95 1 63 1 95 1 95 1 95 1 63 65 95 1 95 1 95 1 95 41 79 93 19 81 79 1 79 69 71 1 83 1 95 57 43 41 79 1 95 41 95 97 95 1 95 93 95 41 95 1 79 85 95 21 99 65 95 1 95 89 95 21 95 57 95 21 95 85 51 21 63 57 95 77 95 93 95 81 95 89 75 57 95 1 95 93 79 89 99 93 95 77 63 45 95 93 95 21 79 21 79 5 15 1 47 61 27 21 79 45 79 89 27 73 63 77 79 57 63 21 79 29 91 9 79 5 63 21 63 69 99 93 79 73 79 45 99 93 83 13 79 93 27 61 79 77 79 53 87 97 79 29 95 89 27 89 27 53 83 89 79 41 95 97 47 49 95 41 79 89 27 85 79 61 47 97 27 69 99 25 91 73 67 97 11 93 63 89 67 41 15 89 79 93 11 89 31 73 87 93 27 29 79 85 79 89 95 21 83 89 11 89 99 5 11 73 63 73 27 53 79 93 63 89 83 89 99 89 67 53 99 41 63 53 27 93 79 53 31 89 67 53 31 53 63 57 63 65 83 89 79 37 11 53 27 89 75 89 83 65 15 89 95 77 99 53 47 85 31 13 31 73 27 89 83 93 47 53 71 81 67 73 83 53 95 73 95 53 47 53 35 53 95 89 99 53 87 73 71 41 67 53 83 37 47 53 27 53 87 53 91 53 47 53 51 53 63 97 71 37 39 89 15 65 31 97 75 89 11 53 31 77 87 53 79 89 91 89 99 29 11 85 31 53 7 93 63 45 95 81 67 89 95 69 55 53 31 89 51 53 91 73 99 73 67 73 67 53 27 73 67 53 3 89 67 37 91 21 71 97 87 73 87 37 63 9 87 53 63 93 68 66 44 14 68 66 80 62 96 66 40 86 88 74 52 70 60 50 68 50 84 50 84 66 92 70 4 50 76 66 12 42 80 86 60 66 92 66 96 86 60 66 92 66 64 66 32 70 96 66 100 86 32 66 52 66 60 66 40 66 92 66 92 66 92 66 92 66 84 94 8 66 92 70 68 50 92 14 76 66 100 98 52 86 92 66 12 90 12 78 28 66 100 90 92 66 32 50 76 94 76 66 96 18 96 14 36 50 76 50 64 66 76 46 92 90 40 14 92 14 92 58 40 50 92 14 24 14 40 94 64 54 100 66 92 94 96 50 68 66 92 50 76 66 92 14 100 66 24 50 84 90 84 14 72 18 92 66 76 50 92 58 92 34 60 50 76 18 92 70 92 50 48 54 92 50 40 54 92 90 92 50 92 74 68 70 76 66 60 34 40 34 96 70 40 54 92 86 92 50 92 70 84 86 92 58 76 38 76 42 100 42 96 70 76 74 40 90 92 18 100 70 92 6 40 34 24 90 96 74 28 86 20 94 76 58 80 86 100 70 76 54 24 86 76 74 76 78 40 86 80 14 76 62 40 78 24 70 80 10 80 70 96 62 40 86 60 58 48 74 44 38 76 70 92 66 24 74 92 90 92 74 24 58 24 18 80 98 92 82 40 90 24 94 40 50 40 90 76 54 96 42 100 34 96 70 92 86 8 34 76 42 96 66 40 34 24 74 60 94 76 54 28 66 96 74 60 18 60 98 80 74 96 26 80 50 8 14 92 66 84 50 8 54 60 42 76 94 8 38 64 78 28 14 100 82 4 42 76 86 24 90 60 62 28 98 80 62 60 22 96 70 96 58 88 74 44 86 8 86 92 2 92 70 76 50 28 86 44 54 76 54 24 90 64 54 4 82 8 98 80 58 96 78 12 58 28 94 64 6 88 94 96 90 8 78 32 22 80 74 28 54 80 34 44 30 28 81 95 1 83 5 75 1 47 53 95 97 95 93 79 1 95 5 79 21 99 61 95 93 95 93 63 61 79 1 95 1 95 1 67 1 95 1 95 21 95 1 95 45 95 1 47 57 95 57 83 25 63 1 95 77 79 41 95 57 79 41 67 1 95 57 95 33 95 93 15 81 95 69 95 1 95 1 95 1 63 1 75 89 95 41 95 5 95 93 79 21 79 61 95 21 95 57 95 81 99 1 95 1 79 21 67 41 95 69 79 97 63 9 79 97 79 93 99 89 63 93 27 77 79 93 95 93 79 85 79 41 95 81 79 41 79 21 27 61 95 21 95 73 79 61 27 93 79 25 95 85 31 57 79 1 63 41 47 33 59 1 23 29 27 93 95 93 79 93 47 9 27 57 47 9 27 97 95 73 99 97 79 21 87 73 63 21 79 97 27 93 79 89 67 77 27 41 71 85 83 85 67 21 39 81 63 89 83 37 99 65 79 81 27 89 63 9 87 73 63 25 63 41 79 45 99 89 47 85 11 57 79 89 11 61 79 89 79 89 83 57 63 97 31 65 99 57 63 53 51 85 63 53 27 57 79 33 71 89 83 97 63 53 99 89 47 89 79 45 83 89 27 37 47 29 55 25 87 89 27 89 15 37 67 89 27 97 67 81 79 61 99 41 83 89 79 53 67 53 35 53 47 37 83 93 95 53 67 53 47 45 11 53 71 53 11 89 63 89 83 89 91 41 35 53 47 53 83 53 35 53 15 77 67 89 35 53 7 77 63 69 91 89 99 73 95 53 55 73 35 37 15 73 87 89 99 53 99 89 47 73 39 57 75 73 55 73 19 41 91 53 67 45 99 53 15 37 11 37 79 89 7 89 19 89 11 93 95 73 99 73 67 37 19 37 19 37 71 53 79 21 71 21 79 53 63 37 55 53 39 93 15 37 59 37 63 85 91 53 27 53 23 73 71 29 67 89 84 50 16 74 64 50 60 66 76 66 68 66 48 66 68 86 72 66 100 86 100 50 100 70 96 86 32 66 40 66 92 78 52 54 60 66 76 86 60 86 100 86 92 66 32 66 84 86 92 66 68 66 60 70 92 66 80 66 32 14 20 6 48 66 84 66 96 86 100 66 32 50 80 54 28 50 92 50 20 14 24 42 92 50 76 46 76 14 44 70 76 70 84 70 72 50 92 66 52 14 92 66 88 70 96 14 92 14 88 14 76 66 52 86 76 66 92 50 60 50 12 66 16 34 60 70 48 74 24 70 92 50 84 50 60 70 96 50 92 66 44 50 76 66 76 94 92 86 64 50 96 38 92 54 76 50 92 86 68 54 92 74 80 50 92 86 92 70 28 78 92 18 88 94 92 14 76 50 92 38 44 30 92 50 92 58 92 86 96 34 92 70 60 54 92 54 92 18 92 86 92 94 80 66 32 22 92 62 96 90 88 34 40 78 92 86 92 18 24 22 60 66 60 66 72 98 24 78 92 74 40 58 44 50 92 86 92 70 92 78 76 70 40 90 40 34 40 58 40 66 24 66 40 62 76 82 40 34 76 38 40 98 84 50 40 98 40 22 40 26 64 66 40 22 60 78 92 34 96 34 92 54 76 90 52 70 96 74 40 94 76 78 60 6 72 86 76 54 92 58 100 94 24 90 96 86 96 66 40 2 24 46 76 90 76 10 56 6 64 2 44 46 80 58 88 18 60 54 8 58 16 38 24 82 96 22 64 66 60 6 60 54 60 74 24 22 76 78 28 54 24 66 100 50 60 42 76 58 44 94 76 6 80 94 96 98 76 26 76 90 84 42 28 74 96 82 96 90 88 74 60 34 40 74 68 62 60 98 92 70 8 98 44 58 100 90 44 38 92 70 76 74 80 50 28 82 40 58 28 54 60 30 68 6 92 66 64 54 44 10 36 98 44 90 76 62 80 81 63 1 95 1 39 1 63 1 91 57 95 57 83 5 95 85 51 93 47 1 99 73 95 1 95 1 95 1 95 1 99 89 63 1 95 1 63 41 95 1 95 1 39 21 79 1 95 1 87 1 79 1 95 1 95 21 39 65 95 77 95 21 95 93 79 57 79 57 95 93 79 93 95 93 95 1 95 93 99 21 95 41 95 85 95 57 95 93 95 97 79 21 95 21 95 1 95 85 67 21 95 1 95 57 83 61 95 81 35 1 95 1 95 9 63 57 95 77 99 77 3 85 95 1 95 85 79 97 27 93 79 53 95 85 27 89 83 93 27 5 79 97 27 61 99 77 79 45 79 93 99 89 63 57 23 85 99 1 79 85 91 85 79 65 79 1 27 57 27 21 79 21 83 57 11 77 79 21 99 29 31 53 79 89 79 73 95 9 47 53 63 97 95 89 67 81 83 53 27 21 79 89 27 89 31 89 27 53 91 93 59 49 27 77 47 21 63 53 99 29 87 53 63 89 67 45 47 97 83 73 95 25 51 53 83 45 23 37 27 93 63 5 95 41 99 89 79 69 27 77 31 89 63 53 15 93 15 9 87 93 99 89 63 21 63 77 31 89 47 89 63 9 99 89 63 93 63 53 99 53 67 89 87 89 67 93 55 89 15 73 67 37 79 53 59 53 63 1 99 73 91 53 87 53 83 81 63 89 67 5 47 81 27 53 99 57 91 69 47 53 63 53 47 1 91 53 11 53 87 89 7 53 47 89 79 73 99 53 83 89 51 53 27 65 15 97 83 89 71 37 63 73 11 89 95 93 87 73 99 53 67 89 63 37 51 37 27 89 51 53 67 53 83 81 71 89 59 89 47 37 79 37 47 53 51 37 63 53 27 89 71 37 31 17 79 85 15 53 35 69 35 37 43 37 79 53 59 37 91 73 55 69 91 9 99 89 31 13 83 21 67 73 87 37 75 81 40 46 64 38 92 78 12 86 48 14 100 70 92 66 96 78 76 66 72 66 60 86 28 54 48 74 8 50 36 86 52 66 84 66 16 14 28 66 84 86 92 86 16 66 44 86 32 66 60 66 76 34 76 62 88 66 32 10 76 50 84 86 84 78 48 86 92 70 40 66 48 66 48 86 68 86 84 66 92 14 84 66 68 90 60 66 44 66 52 46 96 66 52 70 44 66 32 70 64 14 40 14 100 86 92 14 92 50 40 50 36 14 92 22 88 74 100 86 64 66 52 86 92 14 92 14 52 66 92 34 92 26 84 66 40 14 92 34 16 14 92 86 100 34 84 50 40 14 44 58 16 34 92 54 76 34 92 70 92 78 80 78 96 66 84 14 76 50 76 98 92 34 92 50 92 14 92 62 92 34 92 18 96 82 84 90 96 54 92 54 8 66 92 94 92 50 92 18 92 38 92 66 92 66 92 34 92 46 92 14 92 50 92 38 92 46 92 34 64 58 92 86 92 62 36 50 92 70 92 34 92 74 40 70 92 50 92 50 40 66 92 18 40 82 80 94 92 94 92 62 12 10 8 54 92 26 76 14 8 90 96 38 88 50 92 86 40 74 40 90 40 46 48 82 40 58 40 18 60 82 96 86 96 82 96 46 8 86 60 54 88 90 76 94 24 74 40 70 8 46 44 46 24 54 40 70 76 82 24 6 84 62 40 46 72 82 80 86 24 86 28 62 76 14 28 26 100 70 80 6 64 50 64 70 24 78 8 70 80 82 60 66 92 58 92 94 24 6 96 38 80 82 24 42 60 50 44 10 100 50 92 46 44 54 40 90 96 18 4 74 92 86 92 38 64 82 44 62 64 98 8 98 96 46 24 94 80 58 40 82 76 42 40 70 28 50 96 62 76 38 52 82 76 86 100 74 92 78 80 78 96 2 92 94 28 78 80 98 80 14 100 58 76 66 96 82 100 1 71 1 95 57 99 1 95 5 95 93 95 93 95 1 79 85 63 1 79 97 3 93 95 1 95 1 95 1 95 1 95 41 95 1 99 5 95 1 95 1 35 81 95 77 95 1 95 93 95 21 95 1 95 77 95 1 95 41 79 1 95 1 95 77 95 1 95 41 95 21 79 57 95 41 95 1 95 97 95 1 95 93 79 1 79 77 95 21 79 65 95 1 95 57 11 81 79 97 95 89 95 65 95 93 95 97 79 41 95 53 95 93 79 1 95 77 95 21 95 81 83 9 95 1 27 41 79 97 63 5 95 73 71 93 95 1 95 89 99 21 79 69 79 41 47 97 79 93 79 89 7 21 95 41 79 93 63 81 95 81 79 1 79 65 95 89 79 41 63 61 79 93 63 1 79 61 27 77 47 37 79 29 79 37 27 81 99 9 27 21 83 97 75 65 79 65 11 37 95 73 23 77 11 77 27 93 27 33 27 61 95 73 99 97 11 89 99 61 27 53 7 53 95 21 31 73 95 97 47 89 95 57 99 93 11 37 99 89 79 93 11 9 87 29 95 49 95 53 83 41 47 53 95 89 79 9 95 89 31 93 83 73 95 41 35 89 83 53 11 53 79 53 63 85 67 37 79 89 67 89 79 73 15 89 83 53 27 89 95 89 27 81 83 53 63 89 71 53 63 89 75 73 83 41 67 53 75 53 31 5 63 53 75 53 83 53 63 53 83 53 31 53 91 53 91 53 99 37 79 53 15 53 67 93 95 93 15 53 83 73 99 53 83 89 71 89 47 37 67 73 83 73 19 53 11 89 99 37 63 37 79 89 31 49 67 73 99 73 47 73 99 37 99 33 99 53 79 69 31 73 31 73 71 73 83 89 71 89 83 37 83 53 15 89 67 29 67 81 87 89 19 21 55 37 47 65 15 73 99 37 51 33 63 49 71 37 43 73 71 73 87 37 47 89 47 53 12 66 52 86 52 34 48 86 84 66 20 70 76 70 68 66 52 66 4 22 96 86 52 86 88 66 40 86 92 66 48 66 84 66 24 66 76 66 72 66 88 66 92 66 76 94 64 86 72 50 48 66 52 66 92 66 64 50 76 34 92 86 76 66 84 50 68 66 92 98 92 66 92 66 28 86 84 50 100 70 64 66 76 74 32 98 60 14 96 66 76 50 96 50 60 86 96 14 36 66 96 14 60 66 92 50 68 14 44 14 92 14 8 66 80 14 68 66 8 66 84 14 92 14 80 86 16 14 88 90 88 14 60 14 100 14 92 50 100 74 92 70 28 94 92 34 96 82 44 14 96 14 44 86 48 58 92 90 92 74 92 14 60 14 76 74 68 94 92 70 68 86 92 54 92 34 80 90 92 18 64 70 92 14 80 74 76 50 84 18 92 82 92 66 92 54 92 58 84 14 92 38 44 70 76 54 92 90 76 82 24 54 76 86 92 62 92 94 44 86 40 66 80 34 92 70 92 58 96 62 40 82 76 18 76 50 92 70 28 14 24 98 24 62 40 78 40 70 8 98 100 18 40 42 24 78 40 30 40 34 24 90 92 58 60 2 92 22 60 18 92 50 76 46 40 94 40 62 76 82 60 94 60 90 64 78 68 90 52 82 96 78 40 42 84 2 40 90 80 46 64 78 8 58 60 54 24 78 8 70 76 50 24 94 40 94 92 62 76 98 80 82 8 2 44 58 64 54 92 18 28 14 24 42 64 18 8 74 20 94 44 78 40 98 100 86 68 66 100 74 60 66 100 54 68 90 80 58 40 50 24 66 60 98 100 82 80 78 92 38 92 82 44 78 60 86 60 94 40 90 8 58 92 98 8 98 24 82 8 58 96 98 12 54 72 86 44 90 64 58 80 62 76 86 80 90 64 46 44 78 40 82 8 14 28 58 96 86 80 18 44 94 8 70 76 94 40 97 95 97 63 21 43 1 95 1 95 93 95 1 95 1 95 21 95 1 79 97 79 1 95 93 99 49 95 21 79 1 95 93 23 1 27 93 95 77 95 1 95 25 95 93 95 77 87 1 95 1 7 5 79 69 95 61 47 1 95 1 95 97 95 1 79 61 95 5 79 21 79 65 83 1 95 45 27 93 95 93 95 57 79 81 79 85 99 21 79 25 79 61 95 5 95 61 95 93 59 37 79 29 95 97 95 21 83 5 99 85 79 85 79 57 95 89 27 57 55 93 79 41 95 29 79 33 95 25 95 41 95 1 75 77 27 21 95 21 79 61 99 93 95 5 79 77 63 89 79 1 95 73 11 5 79 21 95 21 27 5 99 5 19 57 47 77 47 97 11 93 79 93 99 13 63 33 19 5 63 1 47 1 27 41 67 57 27 77 79 5 71 77 95 61 95 89 63 45 79 37 27 81 95 73 51 37 99 81 95 41 95 89 11 73 63 85 27 77 63 53 99 89 67 57 99 73 35 53 79 37 11 97 67 25 27 73 11 21 83 53 3 77 95 89 63 13 79 1 11 21 31 73 47 89 71 89 63 89 79 73 71 85 79 45 91 77 27 57 15 29 47 89 11 89 51 89 99 89 91 33 11 89 91 89 95 89 67 89 11 21 15 53 63 53 83 53 99 97 31 25 19 53 79 89 39 89 99 53 71 89 35 53 27 89 87 53 11 77 15 89 3 1 95 37 63 53 35 81 99 37 11 45 99 73 99 81 87 53 51 89 95 53 67 53 67 53 59 53 15 89 39 89 35 53 79 45 87 53 87 73 51 73 83 37 83 53 67 73 47 57 47 41 95 37 31 89 31 41 95 45 99 53 63 53 87 37 35 53 35 89 83 37 67 89 43 89 99 53 31 9 99 5 35 53 99 53 47 73 99 69 47 89 83 53 51 61 67 37 87 37 47 37 95 73 83 97 88 50 92 66 56 66 60 26 100 98 44 50 96 42 24 66 96 66 68 38 12 66 84 50 72 70 92 66 92 66 76 22 92 86 64 86 48 66 44 66 96 86 88 50 92 50 96 66 100 66 100 66 48 66 68 86 24 66 52 62 76 50 16 66 92 66 88 42 76 66 92 42 84 66 32 14 48 66 52 34 12 14 92 50 32 66 84 86 92 14 68 14 96 66 64 86 56 50 76 14 68 50 60 66 76 14 92 14 40 14 76 66 92 14 92 14 68 18 16 34 64 66 36 86 92 90 92 18 72 50 32 22 36 78 92 14 92 50 92 86 92 50 92 94 92 70 28 70 96 66 92 50 92 66 60 50 92 82 100 50 92 86 88 74 24 50 60 50 40 70 92 14 92 70 96 46 60 14 92 90 32 58 92 86 92 78 76 66 84 66 40 70 60 50 92 62 92 10 80 70 92 10 76 54 92 54 92 66 76 50 8 86 92 86 40 58 72 54 52 74 92 14 92 22 96 34 64 66 76 86 92 90 92 66 76 18 40 66 40 82 32 82 44 90 96 62 76 82 92 14 40 38 40 14 100 46 64 70 40 54 40 70 24 78 40 66 96 86 8 86 60 50 92 42 92 2 64 82 40 78 76 50 76 34 56 18 40 74 60 22 60 90 28 74 40 50 44 50 92 98 92 82 8 70 80 74 40 86 60 54 92 46 76 70 32 58 48 34 40 6 28 54 8 70 76 18 96 78 100 66 24 74 44 58 96 46 24 22 60 70 8 78 60 22 60 98 92 74 24 82 24 38 92 58 64 2 88 42 52 94 28 62 96 62 64 98 76 66 64 78 68 46 24 90 8 94 28 50 100 54 96 74 92 90 92 78 8 78 76 34 8 98 100 98 76 82 76 54 80 74 60 34 56 74 76 42 92 58 92 74 80 18 28 58 100 62 24 26 72 90 28 70 84 98 92 46 92 21 79 1 27 77 95 21 83 21 87 57 63 21 95 21 95 89 27 93 79 1 47 57 95 97 95 45 99 1 95 1 15 57 95 93 95 1 95 1 79 21 95 1 79 21 99 53 95 37 95 1 79 1 95 1 79 77 79 77 95 57 79 57 95 1 95 77 95 1 95 1 95 61 95 1 79 77 95 45 95 57 95 41 71 77 95 97 95 1 95 5 95 81 95 5 99 93 63 1 87 49 95 89 95 93 79 5 95 21 95 89 63 1 95 93 79 61 95 77 63 25 95 41 95 77 99 61 95 57 95 97 95 57 79 1 95 1 27 93 79 21 47 77 63 65 91 81 95 21 79 85 79 25 79 93 99 41 99 97 79 21 27 81 47 93 63 1 79 9 63 53 99 97 63 65 79 97 27 97 27 85 27 57 99 61 63 93 27 81 79 17 63 53 11 45 83 89 99 73 47 85 27 85 79 37 99 25 99 81 27 81 11 45 47 45 11 41 11 93 63 21 63 57 47 81 83 77 31 5 79 53 79 9 83 73 63 89 11 93 67 37 63 77 79 93 99 77 31 89 19 53 95 61 99 53 47 53 79 53 27 89 11 81 83 45 63 89 99 89 67 45 51 25 63 93 19 73 31 53 79 37 71 89 43 89 83 73 99 89 79 73 87 53 15 61 47 89 67 93 39 57 99 33 35 89 95 89 99 53 67 89 71 89 47 93 83 53 27 89 31 89 79 89 63 89 55 89 67 53 35 37 55 89 19 97 11 89 83 89 31 37 95 73 95 53 83 89 99 89 91 37 47 89 79 41 95 37 87 53 47 89 79 73 15 89 35 53 83 53 79 53 99 89 83 41 99 69 35 93 15 85 31 37 71 57 31 73 11 37 99 97 91 53 87 37 79 5 87 33 51 37 71 69 19 73 87 89 91 45 95 53 83 37 67 53 83 53 67 53 79 73 55 57 51 5 23 73 92 66 40 66 84 50 92 66 40 86 84 66 32 66 100 66 96 66 64 50 16 50 28 42 52 70 72 66 84 82 96 66 88 14 80 66 96 66 76 66 88 50 92 86 76 86 52 66 96 66 52 66 48 66 96 66 64 34 96 66 92 90 16 86 92 66 92 66 64 66 88 66 84 66 80 66 40 94 40 66 92 66 84 58 84 66 76 66 76 34 96 50 32 66 96 86 84 50 100 66 92 66 80 54 92 66 92 34 92 78 76 54 84 86 48 66 92 50 88 86 96 14 92 14 48 14 76 90 84 14 32 94 76 66 12 14 100 94 92 50 92 34 92 14 92 70 96 86 40 14 76 86 96 50 96 50 60 2 60 34 92 34 76 50 92 50 76 14 92 34 92 58 92 54 92 22 96 90 92 54 88 70 76 94 92 70 92 50 40 30 96 94 92 50 76 86 92 78 60 38 92 82 92 6 92 50 92 86 92 18 92 18 76 82 32 78 92 90 92 54 92 86 96 90 92 54 92 66 40 34 92 54 24 94 40 6 40 54 40 54 84 14 92 50 76 62 40 66 60 58 92 70 40 38 60 82 40 94 76 90 40 26 40 34 80 94 40 94 40 22 40 38 76 54 60 82 24 94 60 86 40 90 24 70 40 74 76 82 40 54 24 70 40 26 56 66 40 18 76 78 40 90 40 54 40 82 8 14 60 42 36 50 8 58 96 94 16 74 8 86 40 78 24 74 76 78 24 86 24 78 96 2 80 62 44 18 60 78 96 98 24 6 92 54 92 6 60 90 44 94 60 94 24 90 60 62 64 90 24 94 24 50 96 38 64 38 24 78 60 6 100 22 96 18 96 74 84 70 100 86 64 54 24 98 40 62 76 74 64 82 16 90 8 42 44 78 16 98 80 6 64 78 100 86 60 78 92 94 96 18 76 66 76 82 80 94 80 82 96 70 60 98 96 94 32 70 24 57 79 61 75 1 95 85 83 77 95 1 99 1 79 21 79 21 59 1 47 97 75 57 95 93 95 45 95 97 95 1 95 1 63 1 51 1 63 13 31 21 63 1 95 1 95 93 83 1 79 1 95 25 95 1 95 1 95 1 95 77 95 1 95 1 95 41 95 9 63 21 67 1 79 1 95 1 95 21 95 1 79 1 95 53 79 21 95 93 95 97 99 41 95 97 79 5 95 77 79 21 95 57 95 49 79 57 99 5 79 41 95 1 79 21 95 5 79 41 79 97 95 1 99 1 87 21 79 77 99 41 79 41 79 93 95 49 27 1 79 41 99 21 79 93 79 93 79 93 79 93 79 21 27 85 79 1 27 77 83 29 95 25 63 97 11 89 83 97 27 29 47 73 79 81 79 57 63 77 63 97 47 69 47 57 95 57 83 93 27 57 27 9 27 45 99 93 83 41 55 21 27 53 15 73 27 81 87 97 51 5 67 65 99 89 83 49 71 41 79 97 79 33 51 25 95 21 11 89 67 89 83 41 11 37 11 5 83 89 27 49 11 93 11 21 47 1 51 57 15 89 83 89 15 89 87 29 47 21 99 53 11 85 11 57 79 73 27 81 99 57 99 89 27 73 47 73 47 65 95 81 63 93 63 53 67 89 63 89 19 89 99 53 91 53 11 89 79 65 99 97 31 53 63 73 99 73 47 69 27 53 11 45 31 53 83 89 15 89 99 89 95 73 47 53 67 53 27 37 67 53 47 53 11 53 59 53 55 89 91 53 31 73 83 53 71 53 31 53 83 37 31 73 87 53 35 53 31 61 15 53 47 57 71 73 15 89 67 53 87 53 27 73 87 73 47 73 51 37 83 89 63 69 47 49 87 89 99 57 27 89 87 89 31 85 55 37 39 89 35 57 71 73 83 53 91 89 47 37 67 97 51 89 95 53 99 53 19 37 19 89 55 37 87 73 99 85 24 66 92 86 96 66 84 94 12 34 24 66 96 54 56 74 60 50 84 66 8 86 96 66 28 90 40 46 72 66 12 66 56 66 60 46 76 70 64 14 92 66 92 66 68 66 40 98 100 50 92 66 88 50 84 50 92 14 92 66 92 26 92 66 4 66 32 50 48 66 72 50 68 14 88 34 68 66 88 66 36 90 96 94 24 66 100 14 52 94 96 66 88 66 96 66 92 14 76 14 76 66 88 66 60 14 68 18 60 14 76 66 44 34 68 66 44 50 84 14 92 14 96 14 8 38 92 26 72 66 76 34 76 94 60 18 36 86 92 50 92 18 92 58 76 14 92 14 92 14 96 86 96 70 84 62 68 6 100 86 92 14 64 94 76 34 40 34 92 74 60 86 44 74 40 90 92 86 92 34 40 2 92 70 92 34 92 54 92 86 24 18 96 82 76 6 76 86 96 14 92 50 92 54 92 98 92 18 76 70 60 46 96 90 92 50 24 74 40 54 40 90 92 34 92 98 8 58 96 90 76 90 92 90 92 10 76 34 40 50 40 50 92 34 96 98 76 86 40 22 76 70 24 2 40 94 96 54 24 2 92 34 24 6 80 82 40 70 60 82 40 66 80 58 80 74 24 86 80 94 76 98 44 26 100 46 64 86 40 90 40 38 92 66 24 54 40 10 8 2 28 90 96 70 8 54 96 34 96 86 8 18 92 74 24 18 64 78 32 2 60 54 60 58 76 50 36 18 8 26 8 26 60 62 64 74 76 98 76 18 28 14 8 94 60 38 24 18 72 18 80 74 76 70 76 42 92 26 8 94 96 34 64 90 88 6 8 74 76 98 76 78 8 46 60 54 12 2 28 74 8 26 96 70 44 98 80 94 24 50 96 78 96 50 84 86 60 82 100 74 80 66 92 42 28 50 88 6 96 50 96 42 24 54 96 82 84 2 60 82 100 94 92 98 80 26 64 93 95 77 27 1 95 93 63 93 95 29 95 97 95 21 63 41 31 41 95 1 95 57 95 1 95 1 51 21 79 1 95 1 27 1 95 61 95 93 95 57 71 1 95 77 79 97 95 1 95 1 31 93 95 1 95 1 95 1 95 1 67 1 95 21 79 21 95 57 87 21 95 57 95 97 95 1 95 93 95 1 95 57 95 5 79 93 95 25 95 21 79 21 95 57 79 93 95 25 95 21 95 1 79 97 95 41 95 21 79 29 95 93 95 1 87 1 27 57 95 77 99 89 95 21 95 9 27 5 79 93 95 57 95 41 95 9 79 21 95 5 99 93 99 77 99 45 27 9 79 41 27 37 63 89 27 61 79 9 99 93 79 81 99 61 47 5 95 89 63 61 79 93 27 89 63 93 95 25 71 1 79 41 79 81 27 61 79 93 27 57 47 89 63 41 83 65 67 65 63 89 27 57 27 61 27 81 99 53 11 37 31 61 47 37 27 65 27 81 63 33 11 53 75 57 15 49 95 41 63 29 99 61 63 93 11 77 11 41 79 25 27 77 91 41 67 33 67 97 11 41 11 61 11 29 63 53 83 89 47 73 11 85 87 17 75 37 87 53 31 73 27 45 11 97 79 37 11 89 83 41 11 37 87 29 71 53 63 61 47 89 11 89 99 53 87 89 95 53 47 89 63 37 91 77 83 89 11 89 27 89 91 89 63 89 91 53 79 73 47 97 47 53 79 89 27 89 63 25 51 89 31 53 95 53 63 25 31 97 31 53 83 37 27 73 15 53 67 37 95 53 31 53 95 81 67 65 91 37 35 41 91 73 51 53 47 37 87 89 79 37 11 89 99 37 87 37 63 53 35 45 87 37 15 37 99 73 99 53 15 65 95 37 99 37 71 89 71 89 59 37 79 73 87 89 87 49 67 73 35 53 51 73 55 73 11 37 67 37 15 37 87 37 19 89 67 97 80 86 68 66 76 78 48 66 68 66 76 66 96 66 84 14 40 98 76 82 24 66 96 86 96 66 68 86 48 66 40 66 84 66 96 30 60 66 68 66 92 66 32 66 84 66 40 66 32 86 88 66 92 66 96 66 56 66 44 66 56 66 96 66 76 66 84 50 72 26 48 90 12 66 72 66 48 50 52 94 64 66 48 66 68 66 48 14 64 54 76 66 92 50 92 50 52 66 92 98 96 66 88 50 76 14 76 86 28 14 92 70 88 50 96 14 92 70 76 66 96 50 100 54 96 14 92 14 44 50 92 50 76 34 88 50 92 50 92 86 76 34 24 14 76 14 96 74 92 50 36 66 56 94 24 66 92 14 92 86 72 54 80 90 92 18 64 34 92 98 100 86 60 38 92 90 92 86 96 70 76 10 92 66 40 74 92 50 76 70 64 66 92 78 92 14 76 86 40 14 92 78 44 70 92 74 96 78 92 86 92 22 96 34 60 58 76 34 92 94 24 86 40 86 76 58 92 34 60 38 76 38 76 90 96 70 96 38 40 14 40 50 92 54 40 74 72 50 92 54 40 74 40 70 92 82 40 18 96 78 8 82 92 74 40 38 24 86 76 94 40 86 92 46 76 54 40 78 76 78 100 74 44 10 92 66 76 50 92 22 40 90 68 38 76 54 24 18 40 98 24 74 88 74 60 18 60 78 60 70 44 62 60 58 24 50 24 54 96 90 28 78 8 82 4 74 76 74 24 74 40 78 96 78 88 58 60 58 60 58 96 38 60 54 44 62 40 82 96 82 8 74 24 70 76 94 92 62 24 54 44 74 8 42 100 98 80 82 64 62 60 78 60 38 100 50 80 74 100 58 76 86 40 22 88 90 64 58 96 58 64 78 64 82 100 78 96 90 92 14 80 98 88 42 8 86 96 18 8 70 24 2 24 98 64 82 76 98 100 94 44 78 52 58 24 90 72 77 79 93 95 57 95 1 79 93 95 57 95 57 27 81 95 93 95 77 95 57 95 77 99 1 63 1 79 57 63 1 79 1 95 21 55 1 99 97 87 1 95 1 79 57 95 1 95 21 95 73 47 5 79 21 79 77 95 1 99 61 79 1 95 21 79 21 99 21 95 97 95 1 95 77 95 41 63 21 95 77 95 93 95 57 95 21 79 77 95 41 95 57 79 25 95 73 83 5 95 57 79 97 95 97 27 93 95 93 95 93 95 97 51 93 95 1 63 5 79 61 27 5 79 77 95 1 63 61 83 53 95 5 79 69 79 65 63 41 79 61 27 73 63 61 47 93 63 33 87 69 79 93 95 77 95 41 27 97 51 89 99 97 27 57 27 57 83 57 95 37 27 21 83 57 95 57 27 53 79 57 79 77 27 5 99 41 79 25 83 53 27 57 83 53 87 65 63 21 27 53 27 1 79 17 83 89 51 1 47 37 11 81 83 89 27 57 63 97 27 1 63 37 79 93 11 17 27 49 99 49 99 89 83 89 31 65 79 1 95 73 11 61 31 1 11 21 11 89 67 89 31 73 11 49 99 53 47 89 63 81 35 73 51 37 67 53 63 89 47 93 83 89 31 85 83 89 11 85 95 93 31 45 99 97 67 89 95 53 83 53 83 89 67 97 47 89 47 53 27 53 83 9 31 97 67 53 35 53 39 53 79 53 47 53 79 53 87 57 95 73 95 37 91 29 31 53 99 21 87 73 71 53 11 89 63 65 51 53 15 21 79 85 51 97 95 37 47 53 91 37 99 37 39 53 67 73 47 37 59 37 87 89 95 53 51 77 87 53 67 37 51 73 95 77 27 89 87 37 99 73 31 53 83 53 23 53 67 37 99 37 67 93 87 37 67 53 91 37 87 37 87 73 71 73 99 37 35 89 55 45 19 73 15 89 51 37 83 37 51 1 87 73 47 73 47 73 8 46 88 86 84 90 24 50 92 78 68 86 84 66 84 66 48 66 68 66 48 66 16 66 84 66 92 66 48 78 96 70 80 66 48 66 84 66 84 86 100 66 76 86 80 66 40 66 64 66 80 66 84 66 96 42 92 66 92 38 92 34 92 66 100 86 32 66 76 14 92 66 92 86 88 58 68 70 72 50 100 90 68 86 100 66 64 14 92 66 72 14 60 66 92 66 96 50 24 14 60 66 76 86 92 86 12 34 92 14 92 66 40 50 40 14 92 34 100 86 76 58 68 50 16 70 92 50 32 66 92 14 92 14 92 50 56 90 76 70 80 54 76 14 88 50 64 66 56 74 80 50 92 14 44 14 84 14 84 18 76 54 92 46 60 86 92 58 76 18 76 90 100 66 40 66 76 50 92 58 40 74 88 58 92 58 80 34 92 66 96 70 24 50 96 94 92 50 92 86 76 22 40 34 92 34 76 66 96 14 92 50 40 14 92 90 44 54 60 86 76 70 92 70 92 90 92 74 40 82 92 98 92 6 40 58 40 78 40 86 24 54 100 22 92 38 64 50 92 66 76 14 96 26 60 2 40 34 40 70 76 74 76 42 24 50 40 86 92 50 24 94 40 26 40 58 64 22 60 42 40 70 60 94 40 86 24 58 96 82 40 82 24 66 40 22 40 18 76 14 76 98 76 70 64 10 80 34 96 58 76 94 16 94 96 66 44 22 24 82 100 74 92 58 8 54 28 62 40 90 60 50 100 58 92 82 76 82 76 70 100 10 24 86 40 38 40 82 24 46 96 82 76 94 64 82 76 58 40 66 60 46 20 58 60 54 60 82 60 78 96 74 60 26 76 74 76 34 40 38 76 50 68 78 88 86 76 62 28 74 100 18 8 18 60 98 100 90 80 82 96 74 44 82 68 62 40 42 20 98 60 90 24 42 40 78 44 62 64 62 28 70 80 98 76 34 64 93 27 93 15 1 95 81 95 77 79 1 95 1 99 1 79 1 79 93 95 73 95 97 63 61 95 93 63 21 55 1 79 1 83 1 79 93 95 1 55 21 39 1 63 21 95 1 51 57 95 57 63 57 95 77 79 41 95 1 79 45 99 93 79 93 51 1 95 1 95 93 79 77 95 1 95 57 95 85 83 89 95 57 95 21 11 93 95 21 95 81 79 21 95 93 95 57 95 61 95 81 95 25 95 77 47 93 95 77 95 97 99 41 95 21 95 81 95 41 79 61 95 41 63 21 95 89 7 77 79 5 79 81 79 81 95 21 99 97 55 45 99 1 63 41 83 41 27 85 63 93 79 57 51 21 79 77 79 89 79 93 27 41 79 41 79 89 47 25 91 97 95 41 27 41 27 77 51 25 27 41 63 61 63 89 99 25 63 25 79 93 63 77 95 53 83 81 83 89 87 73 95 65 79 77 79 93 91 89 79 89 27 93 47 93 95 53 99 73 95 85 67 81 95 65 63 89 83 53 31 21 99 53 99 41 63 85 99 97 11 29 67 1 67 77 99 89 35 93 99 73 11 93 67 93 63 5 47 89 27 53 35 37 83 69 11 89 67 17 47 57 51 53 63 73 43 97 67 97 11 21 51 89 11 53 71 53 63 89 83 53 19 89 31 89 99 61 11 13 95 53 99 89 11 53 99 89 11 73 83 53 31 53 11 89 91 89 67 53 51 53 11 53 67 73 87 53 67 89 91 53 99 53 63 89 31 89 67 89 83 89 67 53 11 21 31 53 51 53 31 89 67 37 91 53 67 89 63 53 47 69 47 73 67 53 71 37 35 53 63 53 99 33 83 73 99 73 99 69 51 73 31 37 95 53 67 77 87 53 15 33 63 49 31 77 99 89 35 73 67 45 71 21 31 49 63 89 99 37 87 37 35 73 87 65 55 89 51 73 71 53 47 69 79 37 51 73 92 66 48 66 68 94 68 66 52 66 96 66 48 50 12 30 56 86 68 34 100 66 16 66 92 86 64 86 92 66 52 66 100 50 96 86 44 66 92 66 36 82 16 66 48 66 52 66 92 66 96 14 52 66 60 66 96 74 76 66 56 50 36 66 92 34 68 14 80 86 84 66 52 66 68 58 96 70 84 14 88 86 92 66 32 90 12 42 64 86 80 70 92 34 44 66 84 50 60 14 68 66 48 14 24 86 92 50 60 50 28 42 76 66 76 50 72 50 96 50 92 14 92 34 92 86 100 66 92 50 92 18 88 14 84 50 76 50 92 6 100 14 76 14 16 70 60 90 96 50 96 66 20 18 92 38 96 38 92 66 96 90 92 70 56 34 92 54 76 18 72 70 84 70 92 86 92 74 92 50 92 34 92 66 96 90 92 86 92 70 92 74 92 98 92 86 92 54 60 46 92 86 92 86 24 54 76 94 40 34 92 74 44 74 92 34 92 94 92 18 92 94 92 70 96 78 92 26 76 50 24 78 92 42 40 86 92 98 76 66 40 78 92 70 92 82 92 10 40 38 40 58 92 18 40 90 40 78 40 50 92 42 40 58 60 62 40 66 40 26 60 38 40 70 24 18 40 70 40 74 60 86 96 50 60 58 28 90 40 46 44 50 24 94 76 2 40 38 84 98 80 42 36 94 96 90 64 70 40 82 24 2 24 34 24 98 24 94 24 98 96 94 48 58 100 98 40 74 76 46 28 34 92 70 60 58 64 78 60 78 8 2 96 90 92 46 80 22 40 74 44 86 100 82 44 98 24 86 40 22 96 58 40 46 64 90 56 78 24 98 80 70 96 46 24 10 92 2 76 26 76 78 76 46 80 90 8 70 64 62 56 70 44 66 80 74 36 58 68 42 88 34 100 74 100 78 28 2 60 10 80 74 28 6 96 74 16 66 100 82 96 62 96 82 32 6 96 81 23 1 95 93 79 1 79 1 83 21 99 5 99 57 83 1 95 41 95 1 95 97 95 77 95 21 95 1 95 33 99 57 95 1 99 1 95 57 99 93 95 77 95 21 95 57 99 13 79 57 95 77 63 1 79 5 95 61 79 1 95 41 51 93 79 1 95 97 95 41 79 77 95 93 95 97 95 93 95 93 95 1 95 21 95 1 95 49 95 21 95 81 95 1 95 21 95 21 95 21 95 25 95 57 99 93 95 49 95 5 63 21 99 21 95 1 27 93 79 21 79 5 95 1 79 21 79 77 79 53 79 1 91 17 79 93 79 57 79 97 63 49 79 25 95 41 91 81 27 41 99 93 67 93 27 57 79 25 99 85 79 41 27 89 27 77 83 41 87 45 95 45 63 21 59 5 47 1 99 1 27 53 79 81 99 89 27 61 79 69 63 25 63 41 79 97 27 77 51 61 95 1 83 25 63 93 63 41 79 45 79 29 27 17 99 89 87 53 27 73 63 89 99 61 99 37 47 41 79 89 95 93 27 33 79 53 47 93 95 97 47 93 99 37 87 93 11 89 19 57 79 57 95 73 47 61 99 77 87 53 83 21 67 49 51 89 79 53 95 89 71 89 11 53 11 81 11 89 63 89 79 37 15 57 47 9 47 53 63 93 95 89 79 53 71 85 47 69 51 89 47 53 11 89 51 37 31 89 91 89 31 53 99 53 51 89 67 97 83 89 99 53 79 89 15 89 27 65 31 73 11 73 71 53 11 49 79 89 63 37 63 89 47 45 99 37 55 53 67 53 99 53 99 89 83 89 31 53 63 89 87 53 31 21 11 41 91 57 43 37 99 53 83 1 95 37 63 37 55 85 55 73 91 81 87 1 83 53 91 37 67 61 91 37 87 81 67 53 55 13 95 73 99 65 15 37 59 73 99 73 63 37 43 13 63 61 95 73 19 37 83 65 71 37 83 73 40 86 76 66 92 86 56 70 48 46 96 82 36 34 84 66 84 70 80 66 92 66 92 66 60 66 28 66 48 66 40 50 44 66 84 66 12 86 52 86 76 66 68 66 48 66 76 66 80 46 92 86 32 66 32 66 92 50 44 50 48 66 92 50 100 50 40 66 76 50 32 50 76 66 40 66 100 66 76 50 28 14 48 66 88 34 80 14 4 86 76 66 68 14 88 66 16 66 64 66 32 86 56 82 84 86 76 14 80 14 92 98 96 14 32 50 92 14 92 70 48 66 40 14 68 14 80 14 40 14 68 86 80 14 96 14 88 86 96 86 96 66 92 14 96 50 76 18 56 70 92 66 92 66 92 66 96 86 8 86 100 90 92 58 60 14 92 14 92 66 92 50 92 18 92 70 100 66 92 18 68 78 76 14 24 70 60 98 92 34 52 14 92 90 76 54 92 50 60 58 64 78 12 34 92 82 40 22 76 86 60 74 92 34 92 54 92 18 76 66 92 18 100 18 76 86 92 22 64 54 24 86 96 34 44 2 88 86 96 70 40 70 60 70 40 22 40 78 40 34 40 74 40 46 40 2 96 14 80 74 60 90 40 98 76 34 40 86 80 18 60 98 92 50 40 66 40 90 40 38 40 70 24 58 76 22 40 74 96 62 96 82 92 70 40 38 40 94 88 62 80 54 96 22 76 82 96 98 80 94 76 42 60 82 40 50 100 50 44 34 24 70 24 42 92 22 96 42 92 98 100 94 48 42 80 98 44 82 92 42 44 18 44 22 8 38 44 74 8 58 36 94 80 62 24 50 40 46 96 86 8 62 96 94 92 70 60 18 36 90 8 62 96 14 8 66 20 90 40 82 92 34 76 74 96 82 64 98 80 62 100 26 76 94 76 66 28 54 44 42 100 86 84 74 40 82 44 70 16 6 96 14 60 98 100 98 72 66 32 62 8 66 44 70 64 30 100 93 95 1 79 21 83 29 75 93 95 1 79 57 95 97 79 97 95 77 95 93 99 93 71 1 95 93 99 1 87 29 95 21 95 9 95 57 95 1 95 1 95 1 95 1 95 1 51 1 95 1 79 1 95 37 23 1 95 93 95 93 95 77 95 5 95 57 95 81 95 57 95 97 95 25 83 97 95 57 95 21 95 65 95 21 99 93 79 21 47 1 95 21 95 57 95 93 95 93 99 61 79 1 99 97 95 5 95 1 95 73 95 1 79 25 79 21 95 93 87 25 79 41 95 81 79 1 79 93 79 1 95 1 79 5 79 5 79 9 63 93 79 1 63 1 71 57 79 41 63 73 87 5 79 49 99 93 51 61 99 21 47 9 63 57 27 41 79 41 99 65 99 57 99 93 79 57 99 77 31 65 79 1 71 9 83 45 27 97 67 93 79 89 63 41 87 97 95 45 47 77 67 89 63 41 47 65 67 89 63 13 27 37 11 1 11 49 11 61 63 61 11 13 47 89 63 77 11 41 51 69 67 41 79 29 87 93 31 1 11 57 95 41 99 33 47 85 87 1 11 45 87 73 83 37 79 89 99 1 95 89 79 73 11 45 31 53 11 89 35 93 99 73 99 53 63 89 83 25 63 89 71 89 99 93 67 69 47 57 47 89 71 53 75 53 47 53 99 41 99 93 83 89 95 61 87 53 83 89 87 89 79 73 83 89 91 53 99 53 71 37 91 89 91 89 79 53 31 53 91 89 51 53 51 89 83 37 99 73 31 53 27 89 99 53 99 53 47 89 91 73 79 53 71 37 99 89 67 53 11 53 87 37 35 53 79 37 79 73 27 73 19 53 75 53 63 53 63 37 91 73 19 37 83 37 99 37 95 73 19 73 99 73 99 65 83 73 87 85 99 37 27 89 79 53 35 53 51 89 27 73 83 97 35 29 95 53 51 37 99 1 83 73 51 89 79 37 92 66 44 50 84 66 44 50 36 42 92 50 44 90 60 66 40 66 12 66 84 90 96 66 88 70 96 66 76 50 92 14 96 50 84 66 36 86 76 66 68 66 92 66 48 66 52 66 60 66 32 66 40 66 28 14 72 66 60 66 92 66 44 66 48 66 60 66 92 66 76 86 24 14 92 66 84 50 44 66 100 86 96 66 92 86 92 50 76 66 96 18 76 66 76 94 40 66 96 14 76 50 68 14 40 66 80 14 76 54 100 50 92 50 76 34 88 66 92 86 100 50 44 86 96 14 8 14 32 86 68 18 68 34 92 34 32 14 92 58 92 50 96 50 92 66 92 66 92 34 92 70 96 90 92 78 40 14 92 94 76 18 8 86 92 66 96 38 44 14 92 14 92 58 64 18 40 10 92 54 72 66 76 34 76 34 92 42 12 86 92 94 92 70 92 50 88 86 96 50 76 62 24 94 40 18 92 18 92 74 92 70 76 70 92 82 76 82 96 82 92 70 92 38 92 50 92 90 92 74 76 50 40 58 76 98 76 90 40 54 92 94 40 2 76 78 76 66 76 42 24 54 80 66 24 38 92 22 76 18 100 90 48 66 40 74 8 34 96 86 40 54 76 86 76 78 40 90 76 34 100 82 60 54 92 62 76 26 80 86 80 70 76 38 24 6 76 34 96 86 24 82 40 78 24 74 24 98 92 22 24 90 60 66 100 70 100 86 8 18 96 46 96 94 80 82 24 98 56 86 40 86 76 66 76 54 40 78 8 38 24 18 24 98 92 50 8 94 64 82 100 94 8 90 40 78 100 58 8 54 64 82 100 94 80 74 60 94 60 94 100 86 52 42 8 94 76 98 8 6 44 26 24 86 80 78 84 22 52 22 96 78 80 78 28 78 24 82 80 38 8 90 44 78 8 70 60 78 28 66 28 98 76 98 64 86 100 98 64 90 96 22 96 38 60 62 28 93 87 77 95 93 99 1 79 1 39 21 95 57 79 57 79 1 99 21 31 93 79 57 95 77 55 21 75 1 95 21 95 1 95 1 39 93 95 1 95 81 95 61 95 25 87 21 95 1 79 1 79 1 95 97 95 57 95 21 95 1 79 1 79 57 95 21 95 1 95 93 79 93 79 1 95 57 95 37 63 77 95 77 63 57 63 97 79 1 95 5 99 1 99 93 95 93 95 97 95 1 95 21 99 77 95 21 99 49 95 21 95 93 79 21 79 93 79 93 79 77 79 21 99 21 79 97 95 93 79 89 95 5 63 97 79 21 95 41 63 93 79 1 79 89 11 93 79 25 79 41 27 41 95 57 99 5 79 89 79 41 79 13 95 89 63 89 27 5 67 41 47 93 63 53 35 1 91 97 27 93 63 61 63 97 27 77 63 97 27 1 87 65 27 1 95 41 27 93 83 97 95 57 63 1 99 89 63 73 27 41 87 61 47 77 27 89 99 97 83 53 11 77 99 89 99 93 95 93 27 65 31 97 83 97 75 97 63 53 99 61 63 81 79 89 11 57 83 89 87 29 83 37 11 89 91 73 11 53 27 81 11 21 79 89 47 49 71 53 87 53 79 37 87 61 31 61 27 13 11 89 35 53 11 89 67 53 63 37 67 89 99 89 67 89 63 53 63 37 99 53 79 53 63 53 67 53 99 89 71 53 47 89 63 53 99 89 71 53 83 89 83 53 79 89 15 53 35 81 91 53 11 53 95 93 35 9 87 53 83 89 63 53 51 53 63 53 71 73 71 53 47 53 11 89 47 37 19 53 67 73 67 89 79 37 83 89 19 37 99 89 67 37 91 53 11 37 35 89 71 53 71 89 99 53 31 73 83 5 31 37 51 37 99 53 95 73 67 89 91 73 83 53 31 41 47 65 67 73 67 93 91 73 91 89 35 37 87 89 55 37 79 89 71 73 27 37 24 86 32 66 84 74 40 86 32 34 48 50 76 14 92 94 92 86 68 66 56 34 76 66 12 66 60 34 32 66 44 70 68 66 40 66 96 90 68 86 56 66 92 66 48 66 48 66 80 66 52 66 84 66 24 66 40 66 76 50 80 50 96 66 100 66 100 50 92 66 40 66 92 34 68 70 88 14 92 86 92 50 96 66 68 34 84 70 76 14 76 86 32 74 32 66 44 66 88 86 80 34 76 86 92 66 76 66 96 14 92 86 96 50 72 50 80 50 76 50 68 90 60 34 28 86 68 86 96 14 92 14 92 50 100 66 92 54 8 34 84 50 92 90 24 86 92 14 72 34 40 10 92 70 96 34 52 14 76 86 92 86 48 50 96 34 92 34 92 14 96 70 8 38 92 50 92 2 92 14 24 78 92 98 92 34 76 98 76 38 76 90 76 18 92 18 92 90 40 14 40 18 76 34 92 74 92 54 92 42 92 70 92 70 40 78 92 70 92 54 76 50 72 90 92 86 76 70 76 18 92 82 96 62 92 14 76 90 92 54 76 50 40 70 40 34 76 70 92 90 76 90 60 94 68 98 92 90 76 62 60 54 24 54 92 2 24 62 40 50 76 18 80 78 40 90 40 46 80 70 40 86 24 66 44 54 40 34 40 38 24 54 60 74 8 82 96 90 40 94 96 74 24 62 76 70 80 98 60 78 76 42 40 78 96 82 96 34 40 86 40 70 80 58 88 94 76 94 80 18 8 54 100 34 60 82 60 66 80 58 44 34 24 98 8 46 40 54 28 6 96 34 96 98 60 58 24 86 92 78 8 90 76 66 40 82 92 18 8 70 60 66 80 26 60 58 96 98 28 54 44 74 24 98 64 34 44 74 60 26 8 62 8 74 76 98 80 90 28 10 8 18 40 42 88 82 76 62 60 54 76 74 76 90 92 98 96 70 40 58 60 82 80 98 24 38 60 1 99 1 59 41 47 81 95 1 99 77 75 57 51 93 11 93 95 97 63 57 79 1 95 1 3 89 63 1 79 29 79 1 95 1 95 93 95 1 79 1 95 21 95 65 95 57 95 53 55 1 95 1 79 1 79 1 95 93 95 1 95 41 79 57 95 1 95 21 95 93 95 1 95 5 95 1 95 5 95 97 79 89 95 77 87 21 95 1 95 1 47 29 95 1 95 41 79 97 95 93 95 5 27 57 79 1 95 97 79 57 95 85 35 65 79 1 79 1 95 57 95 5 79 61 79 97 99 77 79 97 79 1 95 53 95 77 79 57 95 21 79 21 79 81 79 93 79 21 63 5 51 41 95 41 79 89 83 41 95 97 27 77 79 73 47 5 47 49 27 45 99 97 99 77 11 97 95 89 99 5 27 65 79 81 63 93 11 77 63 57 79 93 83 97 39 25 11 97 11 81 71 45 27 57 83 89 83 93 67 85 27 93 67 21 95 77 99 21 83 9 27 73 47 89 63 53 63 61 95 97 99 53 27 25 11 81 43 89 11 97 83 89 83 37 67 53 99 89 11 73 47 57 67 89 27 85 79 73 35 93 75 89 27 33 11 89 99 89 47 1 71 73 99 97 87 97 63 73 11 89 47 49 11 37 79 89 99 21 99 37 43 73 79 21 51 53 83 73 87 81 51 81 79 53 91 53 27 89 79 53 87 89 95 53 99 37 67 53 47 53 83 89 15 53 99 77 15 37 31 53 83 89 71 69 27 53 47 53 95 53 27 29 55 45 51 89 27 53 71 97 95 73 51 53 99 73 31 53 47 37 79 37 35 53 51 73 31 53 71 53 83 37 83 73 99 37 83 73 31 53 51 73 31 37 83 73 71 37 43 89 91 81 19 81 87 77 55 89 51 73 51 65 79 37 67 53 87 89 99 77 83 89 59 53 83 53 47 29 19 37 99 53 71 65 71 45 64 50 48 62 48 66 84 66 68 66 60 66 68 86 48 78 68 82 96 66 96 66 60 90 76 14 92 90 80 66 80 14 92 66 92 66 12 66 32 66 48 82 96 66 92 66 92 86 76 50 44 66 92 86 64 14 36 66 72 54 76 66 88 66 52 70 52 66 52 66 36 70 92 66 16 66 88 66 84 66 68 86 88 66 56 66 60 50 28 66 8 90 80 50 36 50 60 14 76 70 80 14 92 14 88 86 76 70 92 54 68 14 12 90 100 14 76 14 96 70 84 66 72 50 72 50 92 86 60 34 92 34 52 14 92 66 28 66 48 70 72 90 40 14 76 86 76 14 40 70 76 34 68 34 92 50 76 18 92 34 76 34 92 14 92 14 92 70 40 14 92 34 60 34 80 66 92 70 76 94 92 86 40 42 92 86 92 98 92 82 96 50 64 86 92 86 92 78 92 14 92 86 76 54 92 50 92 62 96 58 92 86 92 94 92 50 100 98 92 14 92 50 76 6 76 86 60 78 76 58 92 2 76 86 40 82 24 70 76 94 80 2 40 78 92 58 40 50 40 94 40 98 96 38 64 86 40 78 40 58 80 70 40 78 40 90 8 70 76 50 40 90 24 50 92 62 24 66 24 50 60 58 60 50 40 70 76 98 40 86 8 82 40 94 24 94 60 26 68 74 8 26 24 14 76 86 40 98 100 82 76 2 96 38 28 54 60 70 44 6 24 86 48 94 88 58 24 90 76 66 96 98 44 94 60 54 8 90 40 70 60 54 36 14 76 22 80 54 60 90 100 46 8 2 52 78 96 26 44 78 76 58 40 50 44 94 60 14 100 26 64 66 4 74 76 82 40 82 100 50 44 94 68 66 92 94 40 6 48 90 44 38 28 10 64 50 96 98 28 78 36 26 76 62 96 78 44 82 76 90 96 94 8 90 24 26 100 94 100 94 24 62 8 46 76 10 80 1 95 1 63 1 95 45 95 89 79 1 79 97 95 21 99 1 79 41 95 41 95 57 87 21 95 93 95 97 99 41 79 1 47 9 95 1 99 1 95 1 79 21 99 41 95 25 27 21 95 21 95 57 95 1 99 57 95 85 95 97 79 1 95 5 95 41 95 1 79 57 99 57 95 21 79 1 99 1 99 5 95 5 95 5 95 21 99 5 95 61 79 1 47 5 3 81 95 57 79 69 79 21 95 21 95 21 95 45 79 89 95 85 79 41 79 1 95 21 63 81 79 57 83 81 95 1 79 57 95 89 95 53 79 85 79 29 63 57 79 93 79 97 79 21 95 45 79 57 99 41 79 21 79 21 99 21 99 77 99 5 63 93 63 21 99 57 99 21 63 85 95 21 27 53 63 57 95 73 27 45 27 45 63 89 27 5 79 97 83 45 47 93 27 57 27 57 79 25 27 73 83 57 83 37 99 69 27 89 27 53 11 65 99 77 63 49 11 5 63 53 79 21 99 93 11 89 11 37 31 1 99 53 99 13 51 89 11 41 63 53 87 37 35 73 47 93 67 89 95 97 11 25 47 89 47 41 99 97 47 77 99 25 75 89 47 69 87 73 27 61 47 89 11 53 71 89 99 1 31 81 99 61 47 65 63 53 11 89 51 45 35 45 3 53 67 53 11 53 67 93 99 89 27 53 99 53 63 53 59 53 51 73 83 53 63 37 31 89 67 53 99 53 51 89 3 45 51 53 95 53 99 53 3 73 51 81 31 89 91 53 15 73 15 53 91 89 43 53 35 53 47 73 79 89 91 77 79 37 35 89 11 37 99 73 71 37 67 85 27 41 79 73 95 9 99 1 83 89 31 53 99 37 27 89 51 37 55 45 83 73 67 37 99 49 47 41 31 37 71 21 35 89 19 65 51 89 95 61 83 77 75 97 55 37 79 89 55 25 95 53 11 5 19 53 87 37 76 70 44 86 72 90 72 14 92 90 88 66 12 14 72 66 92 50 92 86 28 66 96 58 48 66 12 62 44 86 100 66 60 66 52 14 84 66 48 66 76 50 32 66 60 66 88 66 100 66 76 66 48 66 88 66 96 14 76 34 92 66 60 66 92 66 88 14 40 34 96 86 84 66 68 50 16 90 28 66 92 66 20 66 48 66 48 50 40 66 100 66 64 50 40 90 44 14 68 50 84 66 48 50 92 42 48 50 96 66 92 86 84 66 96 14 80 66 92 14 80 50 92 50 76 94 28 50 64 86 24 50 96 14 28 14 8 66 84 50 96 86 84 50 80 66 92 66 92 38 92 50 40 34 92 90 92 14 92 74 92 66 40 34 24 86 92 50 92 74 44 98 40 66 92 54 92 50 92 14 92 90 92 66 76 74 92 74 92 70 92 26 92 38 40 50 92 78 92 14 92 70 76 66 92 90 64 54 92 98 92 14 92 82 92 34 92 6 92 82 44 82 92 2 96 94 76 86 92 62 92 70 76 70 24 74 40 6 40 90 44 98 52 50 88 50 40 54 40 98 40 34 92 90 76 98 92 6 40 90 96 18 76 70 40 38 40 50 28 82 76 46 40 18 40 90 40 42 28 34 76 42 8 38 92 86 40 42 64 98 60 86 92 90 24 38 40 66 24 90 76 54 24 78 40 10 80 46 60 26 80 98 24 50 76 98 40 98 60 46 92 82 40 18 28 94 24 18 96 62 24 78 100 46 24 58 28 66 24 62 92 82 96 54 8 90 8 42 44 14 64 46 76 82 100 42 64 98 8 42 60 6 64 50 28 86 60 94 76 70 76 74 80 58 92 26 8 10 92 10 44 74 64 78 92 54 76 86 8 34 60 74 64 78 8 78 60 86 8 94 76 6 40 62 76 86 8 14 80 10 28 82 96 98 8 58 100 62 44 74 60 50 76 98 60 98 88 77 95 93 71 97 95 57 3 21 31 61 3 21 63 1 99 1 31 57 95 1 95 89 95 1 75 29 7 1 95 45 95 57 79 65 75 1 95 1 79 21 79 1 99 1 95 57 79 1 95 65 95 21 95 41 27 1 95 57 95 1 95 9 83 85 95 1 95 1 99 21 95 1 95 41 95 21 95 53 95 93 95 77 95 21 23 93 79 21 95 85 95 65 95 41 95 21 95 57 95 57 79 5 79 49 63 93 95 41 79 21 51 97 95 21 79 77 95 57 79 77 79 9 79 53 79 97 95 93 99 97 79 21 79 77 27 85 79 89 79 41 27 85 95 57 95 21 99 25 99 17 59 5 99 77 47 61 91 89 79 57 79 77 83 21 99 5 99 53 63 25 79 45 87 13 47 89 27 85 27 33 27 93 39 89 79 53 63 41 27 41 27 73 99 73 11 45 27 37 11 61 63 97 27 97 27 97 87 21 31 89 91 37 47 45 47 41 83 81 79 89 83 89 79 45 47 53 55 61 47 53 63 89 47 21 11 57 71 73 95 89 99 53 27 89 99 37 99 93 47 89 47 89 11 89 11 73 63 85 95 93 19 89 31 61 11 89 15 73 91 89 95 65 11 89 31 37 63 53 95 61 47 97 99 53 99 89 63 69 47 61 79 89 67 53 67 97 79 73 83 85 87 85 99 53 51 53 15 89 11 37 47 89 55 53 83 73 31 89 23 53 51 89 19 89 47 89 99 53 31 41 63 53 79 37 31 73 51 53 71 53 99 37 35 53 91 49 91 89 79 53 15 53 27 73 47 53 71 37 87 53 47 5 63 37 87 89 79 53 71 53 83 37 51 17 35 93 91 89 87 37 87 37 91 37 79 53 99 89 51 41 95 93 95 21 99 89 91 73 79 89 99 37 35 37 75 61 11 73 99 21 83 53 99 53 47 37 71 1 35 73 95 89 91 89 47 37 84 66 92 70 84 50 92 50 96 86 72 66 100 50 48 14 72 98 84 66 96 86 52 66 72 66 92 66 84 86 84 66 60 66 68 66 32 98 12 50 96 66 64 62 68 50 84 46 92 66 92 70 84 82 76 18 100 66 100 66 92 66 64 50 68 66 60 86 92 66 20 86 52 66 40 66 84 50 28 66 12 50 60 86 96 50 88 66 92 66 68 50 76 14 76 50 92 70 32 30 24 86 100 66 40 82 44 30 60 66 88 66 76 50 32 86 92 86 80 70 44 50 96 14 92 86 84 14 40 50 16 70 96 38 92 50 92 14 88 70 32 14 92 50 76 86 84 98 96 14 92 70 92 34 84 86 44 26 96 74 92 50 92 70 76 90 92 70 92 66 92 90 96 70 92 70 92 34 100 66 92 34 92 46 76 50 40 10 60 38 40 70 68 86 92 54 40 86 92 26 92 86 84 74 92 90 92 86 40 50 92 10 40 14 92 86 92 14 92 70 92 66 92 18 92 18 40 82 92 74 92 90 92 74 76 78 76 58 40 94 40 26 76 38 92 18 60 66 40 78 40 54 8 18 40 54 40 66 96 74 40 22 40 42 16 78 92 14 76 18 96 46 40 34 40 42 8 18 96 70 40 82 40 18 24 90 40 78 24 34 40 18 60 18 40 90 24 38 40 46 24 2 8 58 24 30 76 66 24 98 80 70 44 78 80 94 28 82 60 42 80 22 24 34 60 34 96 82 92 98 24 22 92 58 8 22 28 54 96 14 8 86 24 74 8 78 24 38 24 62 60 82 96 94 76 2 60 38 36 86 92 94 60 74 60 22 8 86 72 54 44 22 28 6 60 18 52 78 28 66 92 46 8 94 84 58 40 50 80 98 44 86 28 70 64 98 8 98 44 2 12 82 32 86 80 82 96 26 68 22 8 38 28 82 96 78 60 74 16 10 76 54 68 94 44 98 100 21 95 5 99 97 47 1 63 57 79 57 63 41 95 21 95 57 95 57 95 21 79 97 87 1 79 61 95 1 99 57 95 21 99 1 51 1 95 57 47 97 95 77 95 69 83 1 79 1 23 93 95 41 79 1 95 1 95 77 95 21 95 1 95 21 99 1 95 49 27 77 95 9 79 57 95 1 83 21 99 1 95 77 95 61 95 61 79 77 63 41 95 57 95 73 95 57 79 57 79 77 95 25 95 1 95 1 95 21 95 45 79 21 79 77 79 21 95 77 79 61 79 69 95 5 99 25 27 49 63 21 79 41 63 89 95 21 79 89 99 81 99 93 79 61 79 93 15 57 79 41 95 37 79 93 27 41 83 89 79 81 87 21 63 97 79 93 63 41 99 77 63 5 87 41 79 57 11 41 27 89 99 21 27 65 27 97 63 97 63 97 63 73 27 61 79 77 83 53 79 93 67 57 31 73 11 77 79 53 99 97 63 97 11 53 63 89 99 85 67 93 11 21 75 1 63 5 47 93 27 53 31 5 79 97 99 37 83 65 11 49 79 97 47 81 11 89 63 5 63 97 47 89 11 53 99 41 67 89 11 45 79 57 59 53 83 41 99 93 67 53 99 89 83 97 47 89 15 57 11 89 83 89 11 89 63 89 67 37 31 89 47 57 79 89 63 73 47 65 95 81 79 37 31 53 87 37 31 53 87 89 91 77 11 89 87 53 11 93 87 33 39 53 91 53 91 89 99 89 87 53 87 53 99 53 87 93 31 53 19 53 63 21 19 13 79 53 63 61 67 5 51 53 67 53 11 53 91 53 83 45 79 73 51 53 7 53 99 53 87 53 95 53 31 37 51 89 15 37 87 89 99 53 39 93 99 57 55 9 31 89 19 93 51 85 71 61 91 89 91 53 91 37 7 89 3 37 87 53 19 45 55 93 71 89 47 89 55 69 19 89 51 53 15 37 63 73 12 86 80 66 80 66 84 66 92 66 92 66 72 66 72 66 52 66 8 66 88 66 92 66 56 66 48 66 76 66 64 66 44 66 88 14 60 66 12 86 76 66 68 66 92 50 100 86 84 26 88 66 12 66 52 66 96 66 64 66 48 66 92 86 80 66 92 66 80 66 92 66 92 66 52 70 40 54 92 86 92 66 92 86 60 66 68 14 76 66 12 66 92 74 84 14 60 34 16 86 28 66 28 50 92 66 96 14 92 14 12 50 84 14 40 66 92 66 44 70 100 14 56 86 12 18 92 14 64 50 92 70 76 34 96 86 16 82 48 34 96 66 96 66 92 14 76 98 12 38 64 38 92 86 92 34 92 50 84 62 48 50 92 90 80 54 52 34 92 50 92 54 92 94 92 54 76 70 92 46 92 54 76 66 92 90 60 74 100 86 92 50 100 18 92 54 40 90 96 34 92 26 92 90 92 42 44 34 8 50 92 66 92 86 76 90 40 50 88 82 76 38 40 18 12 38 96 18 96 2 80 94 92 70 92 70 96 58 40 94 40 70 92 42 24 2 92 34 40 86 64 22 76 78 96 54 40 70 40 54 76 34 40 42 40 86 76 94 80 46 76 98 68 94 88 78 60 46 60 78 84 98 60 78 24 70 24 74 96 2 24 86 24 82 92 38 24 42 40 38 8 66 60 98 40 90 80 86 92 70 60 78 76 70 28 38 80 38 60 74 24 70 76 78 44 94 64 58 20 34 24 42 60 66 64 86 24 66 100 54 8 58 36 62 80 62 80 42 8 94 44 82 8 74 100 82 60 98 100 86 8 62 28 78 80 82 28 98 24 46 40 2 36 90 24 10 100 94 100 58 80 82 44 66 64 38 28 42 92 46 80 82 84 62 96 38 100 58 80 38 96 58 44 82 96 62 100 90 8 58 60 78 60 98 92 98 40 70 96 94 92 90 64 78 84 26 64 93 95 25 15 93 99 1 99 1 75 1 63 93 95 5 95 1 95 61 95 1 95 1 63 21 67 93 95 57 95 97 87 1 95 1 95 21 83 1 79 57 47 57 95 97 67 77 95 1 95 57 95 1 95 21 95 77 63 1 95 1 95 1 95 77 95 21 79 93 79 93 63 21 99 21 71 93 63 25 95 97 83 77 95 1 95 5 95 1 79 93 79 1 95 93 95 93 99 21 95 1 79 1 79 57 63 89 99 77 79 41 95 45 79 21 63 5 79 41 95 21 79 65 95 57 95 89 63 21 91 5 79 41 79 1 79 77 99 1 79 85 79 45 79 57 27 81 27 89 79 93 79 21 79 21 63 1 79 89 99 77 95 93 11 85 27 25 79 21 99 81 87 89 79 57 91 5 63 5 27 9 27 53 27 5 27 21 27 1 63 21 63 81 79 57 95 53 11 1 47 69 47 89 71 57 95 65 47 37 35 49 27 89 27 93 63 1 83 5 11 1 11 53 83 41 47 25 79 21 99 73 11 77 87 93 71 53 79 25 43 53 31 89 47 73 11 77 79 89 47 61 87 41 99 25 99 73 99 89 99 1 99 53 91 21 83 9 99 57 47 25 43 97 11 77 87 97 83 89 63 89 83 77 31 89 15 81 67 89 31 89 59 97 11 53 47 89 19 29 87 89 67 89 51 53 43 53 87 97 47 89 71 53 87 53 99 73 67 89 51 89 15 53 55 53 99 53 83 53 67 89 67 89 79 89 55 53 63 37 51 73 67 53 47 53 99 89 79 73 63 9 67 37 63 97 79 53 59 37 71 89 75 53 71 89 83 53 63 53 87 73 87 89 67 9 19 73 63 89 63 37 71 37 91 73 87 89 95 37 27 85 91 73 63 37 67 37 83 73 79 89 79 37 87 37 71 25 27 37 51 73 87 97 99 85 63 57 15 37 87 57 67 89 51 97 87 89 84 86 40 54 96 38 68 94 20 66 92 66 84 50 48 14 68 66 88 34 88 86 12 66 76 66 40 66 68 70 96 6 92 70 52 66 92 66 84 66 36 78 64 66 92 90 48 66 88 66 12 70 92 66 76 66 92 66 84 66 64 66 24 66 88 66 76 66 96 66 60 66 84 66 84 50 64 14 16 86 100 50 60 66 76 50 52 66 64 34 92 86 44 54 52 86 68 14 96 66 8 18 92 66 92 50 92 86 12 14 92 66 52 14 68 50 92 66 96 66 56 50 96 66 76 70 92 86 92 70 92 2 92 86 96 86 100 86 96 86 40 14 92 38 92 34 60 34 68 34 92 34 24 66 92 86 84 66 88 70 76 90 92 14 92 6 24 62 92 34 40 70 92 46 92 14 96 74 92 50 52 22 92 98 92 74 20 70 40 42 60 50 92 14 4 54 76 98 92 2 92 62 92 86 92 70 40 34 92 70 92 90 76 34 8 18 92 54 92 34 92 10 76 34 92 54 92 98 24 50 76 22 92 38 76 70 40 90 96 46 96 70 84 70 76 38 76 66 40 58 76 70 76 86 64 54 76 78 80 74 92 90 44 38 76 82 28 90 76 18 92 78 40 90 76 38 40 90 44 42 60 46 88 58 24 54 44 90 100 46 28 18 44 94 96 82 100 82 100 14 24 94 80 26 80 58 80 38 60 94 60 30 24 70 60 2 80 82 76 90 60 74 68 86 24 62 60 90 92 22 16 90 8 70 64 58 92 66 8 58 96 2 100 42 76 34 8 50 8 74 80 82 60 14 84 98 60 78 96 2 64 74 100 94 8 86 60 82 8 26 60 66 100 90 40 34 64 90 40 74 44 74 60 58 52 98 60 90 44 82 24 82 8 98 76 46 24 82 60 50 64 42 100 86 76 62 64 62 64 62 92 54 76 90 80 22 44 46 60 90 56 98 64 38 64 94 16 77 95 49 95 17 83 1 95 1 31 61 63 57 99 57 95 1 95 85 63 85 15 97 67 93 95 1 95 77 99 93 83 93 99 21 79 9 99 1 95 1 95 1 95 41 95 97 95 81 95 1 79 65 63 1 79 57 95 81 95 93 79 1 95 97 95 1 95 21 95 57 95 93 95 57 79 41 95 1 95 77 95 73 95 1 95 97 79 57 95 21 31 77 79 21 95 1 83 89 79 41 79 77 95 25 95 37 95 5 79 21 95 61 99 93 95 97 47 61 95 5 79 1 95 37 95 41 99 57 79 1 99 41 95 61 67 77 83 21 63 69 79 93 95 57 99 93 79 21 79 65 83 21 95 61 79 5 63 97 79 69 99 41 79 1 63 61 27 41 63 5 95 93 63 77 27 5 79 57 95 81 63 9 47 93 79 41 27 49 99 57 27 37 63 41 27 1 83 97 99 29 99 41 47 97 63 89 11 77 83 89 63 61 27 41 27 53 79 85 79 89 79 73 83 81 11 97 47 97 87 25 67 77 67 89 51 89 51 93 95 77 83 85 87 37 55 25 47 53 95 93 95 73 3 53 99 69 79 89 99 89 63 89 99 45 27 89 83 25 47 89 79 73 15 77 51 49 47 85 47 89 11 29 31 93 83 41 15 73 35 57 95 89 31 73 71 53 91 53 63 77 47 53 15 53 51 9 63 89 79 89 87 89 67 53 87 53 11 81 75 53 51 89 47 53 15 53 27 89 19 89 83 89 99 53 15 53 43 53 35 53 15 73 87 89 31 37 63 37 99 53 99 73 91 53 67 89 99 37 15 73 71 53 75 81 87 37 15 53 67 73 71 73 19 53 67 37 19 89 83 53 55 53 95 89 67 37 99 53 79 37 51 89 67 73 51 53 71 37 31 73 35 89 79 37 31 73 99 73 11 53 99 9 71 85 99 53 67 37 51 77 55 53 71 53 95 89 88 34 12 66 92 74 84 66 76 66 96 86 92 66 92 34 68 86 100 6 24 66 44 66 44 18 48 66 52 90 16 86 52 66 16 66 28 66 92 66 48 66 92 66 92 66 92 66 88 86 96 50 36 66 48 66 76 66 92 66 16 86 36 66 76 66 96 14 92 66 64 66 32 66 12 66 68 66 96 18 48 14 40 50 40 66 32 66 96 50 12 66 92 14 92 70 68 14 48 86 80 14 88 34 40 66 44 70 92 14 100 78 76 50 92 50 92 26 72 50 76 50 92 86 92 90 92 78 92 86 96 14 96 78 40 86 76 14 84 86 96 14 92 14 92 14 80 74 92 86 40 66 88 90 92 66 60 50 16 18 92 74 92 94 92 54 76 50 92 6 96 50 92 94 92 82 92 50 92 34 92 18 28 54 92 50 92 94 92 66 92 86 76 54 92 50 92 70 92 74 96 26 92 18 76 98 92 66 76 18 92 42 92 86 92 18 92 54 96 54 92 94 92 18 76 78 92 90 76 14 96 94 100 90 80 66 40 70 92 34 92 70 40 18 40 82 92 62 96 2 76 70 76 62 8 22 40 94 76 94 40 94 24 54 40 18 8 94 92 38 76 82 92 6 92 86 40 70 40 90 24 62 96 86 16 50 24 50 24 94 40 78 60 34 44 66 84 34 28 66 80 46 96 10 92 42 100 78 80 90 40 34 44 66 40 50 80 90 100 70 96 42 80 74 76 86 60 78 60 54 24 62 60 74 76 62 8 62 44 54 60 10 44 50 44 98 24 38 44 74 8 58 96 46 64 62 44 58 64 82 8 82 8 66 8 26 96 6 84 78 88 18 8 90 64 98 96 98 76 34 88 74 40 70 44 94 64 98 8 70 44 86 44 66 100 54 28 94 40 82 44 94 44 22 64 78 80 94 76 74 60 94 96 2 96 98 8 78 8 46 68 90 96 2 24 66 64 41 99 93 3 1 95 93 99 69 23 1 95 37 99 77 47 1 95 21 95 81 95 5 95 85 95 57 95 1 95 93 67 21 83 93 63 41 63 93 95 93 95 21 79 1 99 1 95 97 79 77 95 41 95 21 79 57 95 1 95 57 95 57 95 21 87 1 99 57 99 93 11 21 63 1 95 57 71 21 27 77 95 21 95 21 95 1 47 93 95 57 79 57 83 85 95 41 95 57 95 1 11 81 95 21 95 65 95 77 79 21 79 93 79 97 99 5 63 73 95 97 79 81 79 9 99 21 79 61 79 37 83 53 99 41 79 21 79 93 79 81 35 93 79 37 63 49 63 65 79 41 79 49 79 61 79 89 95 89 67 65 63 77 79 89 63 9 95 1 79 41 27 61 99 89 27 25 27 85 79 9 95 93 99 73 3 45 27 9 63 85 87 97 99 21 95 81 51 73 99 89 47 81 47 81 95 93 79 93 95 41 27 41 11 45 63 5 47 21 63 93 31 37 83 97 27 97 67 21 63 5 11 25 11 61 83 73 47 73 99 61 83 89 47 89 47 53 11 29 99 89 83 57 27 61 11 25 43 1 11 37 27 61 95 45 83 89 11 61 47 53 47 53 95 89 15 97 27 53 95 37 31 73 67 73 31 97 63 25 99 81 27 89 47 41 51 77 67 37 79 57 31 89 31 89 55 89 87 89 63 89 47 37 71 81 27 89 99 65 87 73 63 5 47 89 67 53 35 53 87 53 31 89 99 53 35 53 47 89 67 89 95 89 35 53 51 89 35 37 79 97 47 73 99 53 31 81 67 73 91 53 67 73 91 73 55 73 99 73 55 89 95 89 31 89 27 65 91 37 15 89 91 53 51 85 55 89 87 37 87 93 95 73 11 37 75 89 63 33 47 77 71 73 63 53 11 73 35 73 35 37 23 53 99 37 91 73 67 37 63 89 99 89 99 85 31 21 12 50 68 86 52 70 48 50 60 66 12 66 44 66 84 86 48 66 36 70 100 66 92 66 88 66 76 66 92 34 56 86 48 86 84 66 80 86 72 66 96 66 32 66 84 86 72 66 12 66 44 66 48 86 32 86 92 66 12 66 36 66 96 66 44 66 12 66 76 66 60 86 76 86 8 50 68 66 48 66 100 74 16 66 80 66 64 50 68 66 48 86 16 66 92 50 32 90 92 14 92 50 60 50 80 50 76 66 52 98 84 50 84 70 56 86 92 50 48 50 36 74 12 66 92 50 68 14 92 50 96 50 32 14 92 18 92 70 92 86 84 90 92 14 92 70 48 98 92 50 64 66 32 34 96 38 96 86 92 86 92 74 92 18 80 86 60 90 44 66 76 18 92 34 92 14 92 78 92 66 100 82 92 70 92 70 24 14 92 34 76 82 92 50 88 70 92 34 92 82 92 78 92 58 92 78 76 90 92 38 76 50 92 22 92 90 40 86 76 54 32 54 76 86 40 90 92 86 76 98 40 98 40 66 40 46 92 50 76 42 60 86 92 54 40 34 40 38 40 86 16 70 92 34 96 38 44 18 40 54 76 18 92 82 40 86 8 54 24 86 60 86 60 18 80 98 76 42 64 54 8 90 24 74 24 54 76 54 60 2 76 94 60 90 60 78 40 90 24 82 40 38 24 78 24 98 24 10 80 90 92 58 24 50 100 94 24 34 24 54 76 78 80 74 8 70 100 42 96 46 96 94 24 6 76 98 96 38 8 98 60 42 44 94 80 90 76 6 40 70 24 70 24 66 84 58 24 58 76 82 76 54 24 98 24 82 44 66 64 50 96 26 40 98 8 86 96 38 28 98 92 50 64 98 100 70 80 94 44 62 60 54 92 34 36 42 76 78 64 54 80 78 76 26 64 46 92 34 44 10 8 66 92 86 40 6 36 94 80 50 24 94 60 94 64 6 28 1 95 57 95 1 75 57 99 9 95 53 95 1 79 57 95 57 95 21 99 81 95 97 55 81 95 93 95 77 95 93 63 5 95 21 63 41 95 81 95 93 95 57 95 57 99 1 95 57 83 1 95 1 7 97 95 97 95 41 95 41 95 93 95 57 95 45 95 93 95 21 95 21 95 97 95 21 99 21 95 41 95 5 95 33 95 77 95 21 79 97 99 89 75 77 79 57 95 41 95 57 95 21 95 21 95 9 79 41 79 21 95 21 95 97 79 1 79 97 15 41 79 45 95 61 79 21 83 5 79 57 79 97 79 93 79 25 99 85 27 61 79 93 63 93 79 33 79 21 63 25 63 1 27 93 83 17 79 93 79 77 91 97 63 77 99 65 99 93 63 25 79 5 63 1 63 77 63 41 63 77 83 37 83 5 27 21 63 81 79 45 99 89 83 53 63 61 63 89 63 41 99 89 99 97 47 89 11 69 11 21 83 93 95 5 83 89 43 61 67 81 83 97 95 93 11 89 83 89 27 93 63 89 11 41 63 57 87 41 95 89 79 89 11 53 11 25 91 65 27 77 99 57 83 53 79 73 47 89 63 89 83 89 11 57 67 73 63 53 27 21 67 89 67 93 11 89 83 89 51 53 27 93 95 53 31 81 87 89 11 89 31 45 99 89 11 89 19 89 47 89 83 89 11 53 79 53 31 89 71 53 35 89 55 53 71 89 91 89 79 53 71 89 79 53 99 53 31 85 91 53 83 37 31 89 91 37 83 53 67 53 51 73 11 97 95 89 83 33 91 89 19 53 83 73 83 37 31 89 99 89 35 77 55 73 83 73 91 73 99 37 63 29 47 49 55 37 95 37 47 37 87 73 35 37 51 89 51 53 51 73 67 37 47 37 83 81 91 37 27 73 71 73 15 53 79 89 95 37 55 73 27 73 35 89 55 97 47 97 95 45 19 57 99 97 87 97 52 18 64 90 96 50 16 66 76 98 68 22 16 66 48 66 92 50 84 66 32 66 72 98 92 66 60 66 84 70 12 66 20 86 68 66 40 50 88 66 68 66 92 66 84 66 84 66 36 66 92 66 100 66 84 66 52 66 24 66 96 66 68 66 60 74 88 66 100 66 96 66 100 34 40 66 92 74 60 86 84 66 92 66 36 50 84 66 92 50 20 50 92 86 84 86 92 54 84 86 72 50 32 50 48 98 12 50 96 14 92 86 44 50 84 86 12 70 84 50 92 34 92 50 76 66 24 14 84 50 92 50 76 50 100 74 16 46 92 94 76 34 44 14 76 50 92 90 60 66 76 50 96 54 92 50 72 34 76 66 92 86 92 34 92 34 100 34 92 34 92 54 92 74 20 86 60 74 92 46 100 14 24 86 92 50 92 90 92 90 92 70 92 18 64 74 28 18 80 58 92 74 92 54 92 50 92 86 40 50 92 98 92 50 96 74 92 58 92 18 92 34 92 90 40 66 92 50 92 26 84 70 92 86 92 54 92 86 40 86 76 42 88 86 64 70 96 2 76 66 88 26 40 58 76 70 60 86 60 50 76 78 40 26 76 34 76 98 40 74 76 78 96 78 44 86 60 54 40 86 24 22 92 90 76 70 88 50 40 70 24 82 92 38 92 98 44 58 64 18 64 78 88 42 24 66 24 58 24 82 96 82 92 94 24 90 40 90 100 46 24 78 40 82 40 26 8 54 40 66 52 18 80 26 44 82 96 62 8 82 96 98 100 98 64 22 96 70 8 66 80 6 28 70 44 22 24 98 44 46 24 66 92 50 80 26 100 62 92 58 8 38 8 82 80 86 88 22 64 86 80 54 96 82 8 66 92 94 88 94 60 58 96 86 92 50 92 38 60 78 60 78 40 98 64 46 28 70 100 82 24 90 96 62 64 90 8 98 8 90 24 6 100 94 28 98 80 57 11 21 27 57 95 93 95 25 99 93 95 21 99 77 95 81 95 29 95 21 91 57 39 29 95 1 95 21 99 97 79 1 95 93 95 93 79 1 79 57 95 61 95 1 95 21 95 1 95 93 95 21 79 65 47 1 95 57 95 1 63 41 95 1 95 97 95 61 95 77 79 77 95 1 71 77 99 21 95 1 95 57 95 5 95 93 95 21 99 1 67 77 87 93 95 5 79 57 95 93 63 5 95 29 95 73 95 17 95 41 95 21 79 93 79 57 79 21 79 25 79 21 79 61 79 21 79 41 79 21 79 21 47 49 79 21 79 93 63 81 71 97 27 89 79 1 79 69 95 77 27 17 63 41 99 97 95 53 31 97 99 97 79 5 79 61 27 77 63 93 83 25 71 1 79 41 31 45 63 81 63 45 79 21 99 77 63 41 63 81 63 1 63 93 11 89 27 41 71 89 55 73 79 81 63 41 63 9 83 89 67 73 11 41 63 61 19 21 31 37 95 85 99 77 11 81 31 73 79 89 95 21 11 89 39 17 71 61 83 73 63 89 67 73 83 77 51 73 47 61 79 89 95 97 63 89 99 73 99 5 79 85 47 97 27 49 47 89 83 89 27 57 55 85 47 73 15 21 27 53 63 53 15 89 47 37 87 53 83 89 63 89 67 17 83 89 71 89 67 89 31 73 51 73 27 37 51 49 67 53 59 53 87 5 15 53 67 89 47 89 47 53 63 89 47 53 15 73 99 53 63 53 71 89 27 89 23 81 31 37 99 89 83 73 27 53 99 53 99 53 95 73 95 73 39 89 79 37 31 37 71 85 35 37 87 37 31 37 31 37 19 37 67 89 55 37 71 53 47 73 23 37 87 89 71 53 15 37 87 89 91 37 75 41 91 89 15 37 63 41 7 37 99 89 95 33 99 77 79 37 51 29 59 69 27 77 11 73 83 37 71 45 79 93 83 73 88 86 32 50 48 34 96 50 36 66 32 66 76 66 12 66 76 50 92 90 48 14 44 66 84 66 76 50 56 66 72 50 92 34 48 66 84 86 80 18 88 66 84 50 48 66 48 66 92 54 92 66 48 86 84 66 68 86 96 66 92 66 16 50 64 66 60 66 64 66 48 94 100 34 84 94 24 66 92 50 100 50 92 66 40 66 16 66 76 66 40 50 32 50 8 38 80 14 60 66 92 50 80 86 84 50 76 34 16 14 84 50 84 66 92 86 60 50 12 66 32 86 32 34 92 70 76 50 92 18 60 50 36 66 88 50 76 34 92 50 76 14 92 86 40 86 92 18 92 34 92 34 92 34 92 34 40 18 76 66 48 94 52 34 84 90 60 38 92 74 92 54 92 74 92 66 92 90 92 90 76 70 92 94 92 70 92 90 96 86 92 50 92 70 92 54 92 54 92 10 44 18 92 14 92 18 68 86 76 34 76 18 92 46 92 2 92 54 92 66 92 82 92 74 92 54 76 54 92 18 76 70 76 74 92 2 92 26 40 34 40 18 76 94 76 38 24 86 60 18 76 46 40 46 40 10 40 34 60 34 64 58 24 98 76 66 40 50 76 78 80 38 60 86 76 58 24 66 24 58 76 98 92 78 76 18 88 74 48 14 80 70 92 54 40 94 60 94 44 26 24 70 24 62 24 58 92 82 100 6 8 18 24 70 64 90 96 54 88 34 96 62 44 82 60 70 92 74 24 86 92 54 96 42 24 98 44 70 8 94 44 6 24 58 44 34 40 78 28 6 92 94 60 94 96 78 60 90 96 62 100 82 60 82 28 38 28 10 92 54 96 62 24 78 44 94 44 62 76 2 28 18 64 46 40 94 64 58 80 18 60 66 80 50 8 94 28 94 44 74 80 70 24 2 44 98 60 62 8 78 52 54 96 74 96 86 64 54 92 90 76 50 92 94 64 46 64 93 95 69 95 1 63 21 95 77 95 81 75 93 79 61 95 93 95 73 99 93 27 1 95 57 95 77 87 93 95 57 79 1 95 21 95 1 63 1 99 21 95 93 35 21 79 1 95 1 79 21 99 21 95 21 95 93 87 57 95 21 99 21 63 77 95 85 75 21 99 41 99 53 95 97 95 21 15 57 95 77 39 21 27 57 95 77 79 1 79 25 95 41 95 77 79 1 95 57 95 21 79 57 95 37 79 57 95 5 95 57 63 69 95 49 79 89 79 77 79 77 79 41 79 77 19 61 79 13 79 13 95 57 63 41 67 93 79 45 63 21 83 81 79 93 27 93 79 1 83 57 79 93 63 45 67 21 79 33 27 21 95 1 63 5 63 57 87 77 39 21 79 57 11 41 67 73 79 73 63 37 99 77 63 93 47 1 47 5 67 57 67 5 87 21 95 89 31 37 55 85 79 89 95 93 11 97 63 61 63 33 47 25 11 33 11 21 63 57 11 65 63 89 27 5 11 89 11 73 11 73 11 97 63 89 11 89 83 37 67 77 27 41 79 17 11 37 95 9 95 89 43 97 47 81 79 73 71 89 47 57 67 89 99 73 79 25 67 37 11 97 11 89 67 89 31 89 11 41 99 97 63 37 63 89 83 73 63 77 99 89 47 89 87 89 83 5 87 89 71 53 11 73 71 89 95 89 83 53 59 53 83 53 63 53 83 89 55 89 31 53 67 73 91 9 71 73 71 57 27 77 99 89 99 89 35 89 31 73 87 37 83 73 51 53 99 37 71 37 83 53 87 73 91 37 83 53 79 53 71 53 15 73 91 73 67 89 15 81 55 73 83 37 11 37 87 37 95 73 87 37 55 37 79 89 71 53 99 73 83 37 87 89 51 37 79 37 19 37 47 73 95 37 55 73 67 73 19 73 15 73 99 73 15 89 47 77 31 29 55 89 31 73 51 89 55 89 84 78 48 66 84 66 12 66 68 50 72 38 28 66 68 74 44 50 92 66 84 50 84 90 96 66 80 66 68 86 76 14 96 70 12 66 12 66 92 66 24 66 12 66 92 66 84 66 96 46 48 66 12 66 60 66 52 66 92 66 40 34 92 66 84 70 96 46 48 38 12 86 92 66 60 66 84 66 64 50 92 86 92 86 84 70 36 50 100 14 84 50 92 66 84 66 68 66 76 50 76 66 64 34 100 66 100 14 92 50 64 74 32 14 92 86 72 14 92 50 84 50 68 14 68 54 96 70 60 2 92 50 92 14 40 70 92 50 68 14 32 66 24 30 60 34 92 54 60 50 60 70 92 34 92 66 12 90 92 98 92 38 92 50 92 70 84 50 76 98 76 66 92 42 92 34 92 98 92 94 92 14 92 98 92 34 92 66 92 94 92 6 92 34 52 66 92 10 92 54 92 54 84 86 76 50 32 70 92 78 92 70 76 58 40 54 92 70 92 50 92 74 92 50 96 70 64 70 76 50 92 90 60 90 40 66 64 66 40 18 76 70 92 86 76 86 40 66 76 90 76 54 40 98 76 90 72 78 40 54 76 82 8 74 96 58 8 70 8 66 44 74 60 86 24 46 96 74 44 38 40 46 40 74 96 90 76 74 76 42 76 74 60 74 24 74 24 46 24 66 40 94 24 98 60 86 8 78 44 50 56 62 24 98 76 62 40 26 60 10 24 82 24 82 96 66 8 46 100 2 96 22 40 74 92 66 80 58 76 38 40 34 24 74 44 98 96 18 80 62 96 50 24 58 64 18 40 90 100 98 52 98 64 66 80 74 60 78 24 98 8 82 8 50 8 58 96 18 48 82 80 18 64 98 80 94 92 58 8 38 64 26 28 78 8 62 28 54 80 22 100 82 76 74 96 94 44 74 52 42 24 22 80 58 40 46 96 66 28 22 28 58 40 26 84 70 40 97 79 93 95 97 79 1 11 45 55 93 63 57 79 77 39 9 83 1 39 57 99 21 99 57 95 21 79 57 95 57 79 21 99 1 95 77 99 93 95 21 95 21 79 1 95 41 67 61 27 21 95 97 95 93 95 93 95 21 99 77 95 73 95 21 95 57 63 57 79 77 95 41 79 93 67 1 95 21 95 81 95 57 79 57 79 21 95 5 87 21 95 93 95 5 95 1 79 1 99 5 99 93 79 77 87 65 95 65 79 21 59 89 79 93 79 41 79 77 79 61 79 57 47 97 79 57 79 61 63 9 79 57 63 5 79 21 63 9 63 33 95 97 43 97 95 57 79 57 79 97 95 21 63 45 63 45 63 53 63 9 83 89 27 61 79 41 63 85 63 97 83 93 79 25 79 41 63 21 99 45 63 5 63 1 63 53 63 89 67 85 63 81 95 61 27 97 63 21 99 53 27 77 95 97 63 81 63 25 95 57 63 77 63 65 79 29 47 53 63 89 47 13 63 65 79 77 11 61 67 33 79 73 63 1 79 1 11 25 51 57 83 77 23 89 63 89 31 53 79 93 99 29 47 49 83 89 63 57 79 89 67 89 63 89 87 89 63 89 79 77 47 41 87 53 27 89 27 73 39 89 35 89 35 89 83 89 83 89 31 53 67 89 55 73 55 97 99 89 31 89 87 89 51 89 11 89 95 73 11 57 83 89 91 73 55 89 99 89 83 89 71 25 99 37 35 53 87 73 31 53 99 89 91 53 87 89 15 89 71 89 71 53 67 1 47 85 47 89 63 73 51 73 87 73 27 89 71 37 79 89 31 37 87 53 71 73 15 37 67 37 31 97 31 37 63 37 51 93 67 37 67 37 67 89 51 37 51 53 91 37 15 37 63 73 99 73 55 37 47 37 55 37 83 73 11 13 55 37 15 73 19 73 27 89 35 73 47 33 91 73 83 37 35 69 55 25 68 66 92 66 48 66 24 50 84 66 84 86 92 66 92 66 72 70 48 70 32 66 40 66 28 66 48 66 92 70 52 66 92 14 92 70 80 98 84 66 72 50 24 66 44 66 96 86 76 86 24 86 76 66 12 66 20 66 72 66 24 86 92 50 84 66 12 66 32 50 36 66 48 50 92 90 92 66 60 70 92 70 28 66 40 66 76 66 12 50 84 70 96 66 64 70 96 86 68 50 92 50 84 14 84 94 92 50 52 66 40 50 76 50 92 34 40 66 92 34 64 70 88 14 92 34 24 38 76 54 52 86 92 70 24 70 84 66 88 50 92 66 84 70 92 74 60 70 92 98 76 50 92 34 60 50 96 66 92 34 92 90 32 74 76 70 92 66 92 50 92 86 48 50 96 58 76 66 92 86 92 70 68 34 96 70 92 98 92 62 76 34 92 18 92 14 92 50 92 74 92 86 28 90 92 54 92 54 100 38 76 66 92 70 76 66 96 54 80 46 92 10 92 86 92 94 76 98 76 34 76 78 40 50 92 18 92 38 92 66 76 34 80 94 92 10 76 18 92 58 28 90 76 78 76 98 80 74 96 18 8 90 96 78 44 50 60 62 24 90 8 74 76 66 80 90 60 70 28 86 40 58 80 70 64 22 60 62 60 94 8 58 64 54 96 66 76 38 80 54 24 18 92 98 60 70 24 6 24 90 96 54 76 70 24 90 40 86 24 34 40 70 60 66 24 86 8 58 24 58 24 6 60 82 64 70 8 78 24 86 8 98 24 98 40 86 60 98 76 98 80 82 28 26 8 82 96 78 28 50 32 22 12 86 64 94 44 10 8 78 8 78 24 62 8 66 64 34 8 70 24 82 96 38 96 82 64 42 24 70 100 98 24 50 80 98 28 90 28 2 64 38 12 82 100 38 28 26 4 46 64 34 4 6 8 46 80 42 96 42 64 22 60 66 60 78 100 21 83 1 67 1 95 1 79 21 95 77 99 1 63 97 83 1 71 89 95 21 91 1 83 57 95 93 3 1 79 1 63 93 95 21 95 1 79 53 23 57 95 1 79 41 95 77 95 57 95 57 95 93 79 21 95 21 67 21 95 1 99 1 79 21 63 57 27 41 79 93 79 25 99 21 95 9 95 21 95 21 59 21 63 1 95 21 95 1 79 97 95 73 79 21 95 21 95 57 95 1 79 45 95 25 95 93 79 13 79 21 79 93 79 57 79 21 23 61 31 93 79 5 79 41 79 93 79 93 79 93 83 97 99 45 67 61 27 41 95 5 63 77 79 77 99 61 95 5 79 33 95 21 47 61 99 41 63 9 63 9 95 73 79 77 79 89 27 93 83 29 27 77 27 37 7 21 27 69 47 93 63 73 79 97 27 21 99 73 79 41 27 25 47 89 27 77 63 77 27 93 27 61 99 81 47 89 67 77 11 89 71 93 11 57 11 21 47 97 39 85 7 41 63 89 47 25 99 89 75 17 63 77 95 97 47 65 11 5 91 53 31 25 11 53 11 89 63 53 83 93 47 97 47 89 59 53 31 89 79 93 27 89 11 41 51 41 15 89 47 9 47 89 51 37 95 89 47 53 31 89 51 89 79 89 91 89 99 53 99 73 11 61 11 89 31 53 55 89 27 89 99 53 71 89 63 53 47 89 51 73 83 89 47 89 63 89 15 73 99 89 27 89 63 89 83 89 31 73 67 89 83 89 67 53 19 89 87 89 87 89 63 5 71 89 51 89 31 81 15 89 51 37 47 53 15 57 63 45 79 37 67 93 99 53 47 97 71 37 99 53 55 73 83 89 35 73 15 89 99 37 55 89 19 37 31 53 67 89 87 73 15 89 47 93 91 73 91 37 71 37 15 37 83 37 79 73 99 53 55 97 31 69 99 73 95 81 51 37 51 37 23 65 31 73 79 85 68 70 76 50 92 66 68 70 100 66 88 74 84 66 40 86 84 66 48 38 68 66 72 66 92 66 92 94 92 74 48 86 44 66 72 66 96 66 96 86 80 14 24 66 92 66 84 34 84 66 68 86 84 86 68 66 84 66 60 66 92 90 92 70 92 86 32 66 56 66 24 86 48 66 80 66 92 50 76 86 88 86 76 66 76 86 72 86 100 66 96 54 92 14 100 70 76 50 84 50 100 50 68 98 32 86 92 50 40 66 92 34 92 86 92 50 56 54 96 34 80 70 80 86 48 34 16 86 92 94 92 50 88 14 96 50 40 50 44 50 92 34 76 50 92 86 68 70 92 90 92 50 92 14 92 86 76 34 92 38 92 86 92 82 76 54 60 70 8 54 76 50 76 34 92 86 92 74 92 46 76 22 92 38 92 34 96 90 92 34 76 74 92 58 92 10 92 18 76 54 92 42 76 34 92 2 92 34 92 74 92 86 92 14 92 74 92 86 76 90 92 86 76 50 76 94 92 70 76 74 92 86 88 86 76 2 44 18 96 90 92 86 76 18 88 90 96 22 92 54 76 66 76 18 76 18 40 42 96 90 76 94 40 78 60 98 92 86 40 38 24 90 24 70 40 86 96 14 24 74 24 22 24 78 60 34 44 50 76 78 24 34 96 74 76 78 96 14 60 10 24 66 96 98 32 50 44 90 76 54 24 90 80 54 8 78 24 94 44 94 60 42 32 74 8 22 60 50 100 66 96 82 28 66 96 78 8 70 64 2 24 98 64 54 96 90 76 34 60 42 60 46 60 70 92 46 8 42 96 98 40 42 8 82 96 62 96 10 80 62 8 58 76 98 76 50 92 78 28 38 60 94 80 62 92 38 80 86 96 94 56 66 76 62 68 34 44 38 80 90 44 82 80 78 28 10 44 70 60 86 64 98 28 66 44 62 32 54 92 78 44 78 76 54 80 70 100 85 95 65 95 57 79 77 95 41 95 61 99 1 47 57 83 81 95 89 79 1 31 5 95 21 95 57 95 21 87 41 95 5 95 21 95 1 63 89 83 57 99 57 99 21 95 21 95 61 95 97 95 77 99 57 95 41 79 21 95 93 95 41 95 77 95 1 51 21 83 65 79 41 95 21 55 21 95 1 99 21 79 93 95 21 95 21 95 21 79 65 95 93 79 21 95 5 99 21 95 5 79 53 79 93 83 5 59 21 83 93 79 5 99 5 79 61 79 93 95 1 95 93 47 77 99 53 79 77 79 49 99 97 95 77 79 45 79 45 99 5 95 89 79 57 95 77 63 93 63 5 79 77 63 21 63 81 63 41 99 81 95 77 79 69 95 41 87 93 63 41 27 21 63 77 99 77 95 93 63 93 99 93 79 93 75 65 99 5 47 65 47 49 79 93 63 41 63 61 63 21 83 97 99 93 79 41 31 49 47 89 63 41 11 25 75 93 99 41 71 61 63 89 99 73 47 41 99 97 51 53 95 81 51 73 47 21 87 77 79 45 11 41 11 65 11 77 67 41 27 85 51 97 95 37 71 41 47 53 47 89 15 65 83 45 31 89 47 89 63 29 99 1 99 21 67 73 27 89 55 69 35 73 99 21 87 53 71 89 67 89 99 73 31 61 99 89 83 93 87 93 67 89 7 73 47 53 71 77 83 73 11 37 99 89 71 89 55 89 67 89 31 89 47 89 39 65 35 25 55 89 99 53 55 37 15 53 67 89 71 89 83 89 15 89 31 89 83 89 87 37 55 73 47 73 35 53 83 37 99 73 51 53 83 53 55 73 43 37 55 89 99 93 27 37 15 73 63 89 71 37 47 73 35 37 51 73 15 89 35 37 15 89 71 37 71 37 87 45 51 73 83 89 27 89 95 97 55 77 67 37 11 73 47 37 71 37 83 73 87 89 79 57 91 89 91 37 96 66 68 66 48 66 84 66 40 70 100 50 48 78 92 66 76 50 92 50 84 50 12 70 44 66 80 42 76 66 12 86 88 66 12 66 12 66 68 66 36 86 16 66 80 66 20 86 16 66 84 86 84 90 76 66 52 66 52 66 48 66 68 50 48 66 32 14 72 66 80 18 84 66 80 50 76 50 16 50 84 66 92 66 16 66 100 94 88 66 92 86 48 86 40 66 92 70 52 86 60 50 40 66 52 50 92 50 76 14 48 50 92 86 60 34 96 86 40 90 4 86 92 34 40 86 48 66 84 50 36 34 68 86 80 50 96 14 76 66 92 78 100 34 24 50 92 78 96 50 92 70 92 54 84 90 76 86 72 90 96 50 92 70 92 94 68 54 92 18 84 54 60 62 96 70 76 86 96 78 92 42 92 66 92 18 92 86 100 54 92 58 92 70 92 74 92 34 92 18 76 94 92 86 92 70 76 94 92 74 96 50 92 50 48 82 92 58 16 54 92 38 92 90 92 54 76 94 60 34 76 86 92 94 76 18 76 34 76 70 40 18 60 18 76 94 80 54 76 74 64 54 76 90 76 90 60 98 76 22 44 62 76 94 96 34 24 74 76 58 40 54 40 50 60 94 60 98 60 34 80 90 24 38 76 74 96 58 60 98 92 86 8 78 28 74 48 74 100 90 24 34 80 42 24 18 8 58 80 70 44 58 80 98 100 34 80 98 8 22 8 94 8 86 8 38 92 90 60 82 44 6 44 90 76 86 40 34 80 58 8 82 24 70 8 78 76 62 96 6 76 78 76 70 92 54 60 78 92 90 24 82 80 62 8 62 44 42 8 74 8 18 96 14 96 34 8 86 92 50 8 34 60 90 28 14 60 50 80 54 96 90 28 70 40 98 64 94 60 98 64 94 68 46 80 10 44 90 40 70 96 66 96 22 44 6 64 46 64 30 92 74 44 42 100 62 100 21 67 97 39 25 99 93 67 93 87 57 99 77 79 93 99 93 95 77 99 1 83 57 63 77 95 97 95 41 95 93 83 93 95 1 63 57 95 41 95 21 99 1 3 41 95 57 83 81 67 21 79 1 95 57 95 1 79 9 95 93 95 5 95 93 83 1 95 57 79 77 79 1 95 21 99 1 83 77 95 21 99 21 99 21 95 21 27 41 79 57 31 77 95 1 95 5 79 61 23 5 79 9 79 21 79 97 99 41 79 41 27 1 95 77 79 21 79 21 79 21 63 57 79 93 79 57 63 9 95 65 79 21 79 25 99 21 83 21 27 93 79 5 95 5 83 61 99 89 63 85 63 49 63 41 99 21 79 65 63 57 79 57 63 93 95 5 95 61 63 93 47 77 99 41 63 61 63 93 63 93 99 9 83 61 63 93 11 93 63 89 27 61 59 89 67 89 83 81 99 73 83 89 27 25 63 73 51 89 99 73 99 41 47 1 27 65 11 97 63 53 47 57 47 41 47 57 99 93 11 37 11 89 11 73 95 69 47 41 11 89 99 89 99 41 11 61 87 89 67 53 11 21 99 81 71 97 83 9 67 89 99 37 99 89 51 89 83 29 67 89 95 73 83 89 99 89 31 81 71 89 67 57 11 53 67 37 11 97 31 53 11 53 51 89 31 25 79 89 63 89 15 89 79 89 87 89 79 73 79 89 71 89 47 89 23 73 99 53 91 89 99 89 83 77 39 53 35 89 31 89 47 53 51 73 83 53 35 89 99 89 67 89 47 37 31 73 87 37 55 37 31 53 19 13 55 37 23 89 63 89 99 37 75 37 15 89 67 89 87 53 35 73 19 53 11 37 83 73 31 53 95 73 51 37 51 37 87 89 91 69 67 93 51 73 99 37 67 37 51 73 67 37 99 45 31 73 23 41 79 65 91 41 47 37 35 53 71 73 67 73 35 65 11 37 51 73 64 2 76 90 40 54 96 82 76 50 64 70 84 90 76 90 48 86 80 14 88 70 48 38 32 70 68 66 12 66 76 66 76 34 44 90 28 50 68 94 88 86 32 66 48 66 44 38 12 66 92 66 20 86 32 90 88 86 44 86 84 66 88 66 76 86 92 90 88 34 40 66 92 66 92 86 92 66 12 50 32 86 76 34 92 50 96 66 24 50 28 34 12 98 48 66 92 86 56 86 32 66 12 42 76 34 92 70 100 70 96 86 32 90 44 66 12 50 92 66 92 70 80 34 72 14 64 70 92 70 64 86 96 86 32 50 92 50 92 34 76 58 12 74 80 90 96 34 40 14 92 50 92 50 92 34 52 70 44 70 92 90 92 86 76 58 16 70 96 34 40 78 92 34 92 34 92 34 52 90 76 18 92 14 96 78 28 98 92 54 76 78 92 54 76 38 92 86 76 98 40 66 92 94 92 86 92 38 92 18 8 98 92 82 92 70 92 90 92 58 76 86 76 18 40 50 92 78 60 74 76 18 28 66 76 98 76 74 76 42 52 78 76 18 96 74 76 70 76 66 76 82 76 74 76 86 76 74 24 74 24 46 100 86 76 58 76 50 24 82 96 90 76 38 60 98 76 94 24 94 40 78 92 54 24 82 60 90 24 70 76 94 92 50 96 90 40 70 24 90 64 86 24 62 44 14 100 42 40 90 64 54 8 70 24 54 96 86 24 94 24 62 92 6 80 98 24 66 64 10 8 82 24 18 8 94 44 90 60 54 100 98 76 18 92 22 80 38 60 18 56 18 28 54 44 98 24 18 40 82 44 6 92 62 44 50 8 62 80 34 92 58 100 38 76 66 20 98 44 98 44 82 92 18 44 98 56 98 8 46 8 42 80 82 40 34 64 42 52 98 80 38 80 94 64 38 44 62 28 66 96 74 56 78 72 74 96 50 8 6 80 70 100 94 28 74 8 21 95 1 95 93 95 93 75 1 63 57 95 57 95 89 95 1 79 57 95 1 95 9 79 1 95 45 63 21 95 93 99 93 79 57 95 77 79 57 79 85 67 89 99 21 95 57 95 93 83 41 83 57 99 21 35 57 99 1 79 57 95 93 95 57 95 21 95 61 95 57 95 93 95 1 99 21 79 21 95 41 99 93 11 41 79 21 79 93 3 21 95 77 95 93 99 61 99 21 79 57 79 61 95 21 95 65 79 1 63 21 43 77 79 5 79 81 99 97 79 29 63 57 63 21 67 97 79 1 99 61 63 97 79 89 79 1 95 77 63 25 79 57 79 45 79 97 79 41 79 61 95 65 79 93 79 25 63 25 83 25 63 57 99 89 63 93 27 97 63 73 63 97 95 41 27 73 63 77 95 93 83 21 27 29 83 89 63 21 99 89 63 61 27 37 99 65 83 81 63 93 99 21 11 77 11 53 79 45 63 77 47 89 79 97 47 53 27 89 63 81 79 41 11 61 47 77 11 97 63 9 11 89 79 89 63 73 67 93 67 73 47 89 11 77 31 85 79 53 87 53 95 41 99 73 31 73 83 57 95 61 51 89 35 77 87 53 47 89 31 53 63 85 11 73 51 77 63 73 27 73 31 89 47 89 47 89 31 89 31 89 47 9 15 89 99 45 47 89 31 89 67 53 15 89 11 89 31 89 83 89 71 89 67 89 83 53 47 89 83 89 71 89 67 89 95 53 67 53 19 89 31 89 15 89 99 53 99 73 19 73 19 21 55 53 99 73 11 53 31 37 91 77 67 53 63 89 23 45 71 53 67 73 67 37 83 73 59 17 99 89 55 89 87 73 71 37 91 37 51 73 55 45 11 73 11 73 55 37 79 97 11 77 87 73 87 37 87 73 51 37 15 37 47 37 51 37 47 73 35 37 71 61 87 73 99 33 67 37 55 73 71 37 55 37 91 41 44 86 36 74 80 70 52 82 24 38 44 86 68 86 16 66 36 86 72 66 12 50 80 66 60 66 40 54 88 42 72 70 60 66 16 66 92 66 84 66 80 14 84 50 60 66 76 70 76 66 48 42 84 18 52 66 68 66 16 66 84 26 40 66 32 86 52 86 72 66 64 50 88 86 100 66 72 86 92 94 60 50 68 14 32 66 40 86 12 66 88 90 32 66 36 50 60 50 40 86 96 66 92 50 92 42 84 66 100 50 84 50 80 34 92 66 96 86 40 34 100 54 100 14 92 50 36 78 24 86 100 70 52 90 76 14 100 34 92 98 96 34 92 50 60 66 80 14 88 70 92 78 92 86 92 34 92 50 92 18 92 90 76 34 92 86 92 34 84 98 76 58 40 74 76 90 92 18 96 58 92 74 92 82 100 2 64 70 80 70 92 18 96 18 92 86 100 90 92 50 92 58 92 34 48 50 92 90 56 86 92 18 76 14 92 46 44 82 92 34 76 18 76 54 76 58 76 38 28 94 76 90 76 70 48 38 76 34 92 74 76 86 40 98 76 70 40 46 76 62 40 98 76 98 92 18 40 2 60 50 40 94 92 78 52 70 76 86 60 50 60 34 60 34 40 74 24 34 80 14 60 86 64 78 60 46 100 6 44 10 52 82 96 78 24 86 24 50 24 6 60 94 24 94 24 6 44 98 24 46 8 70 8 26 60 58 44 86 76 82 76 74 100 66 24 90 52 42 96 98 40 2 64 82 12 74 96 70 8 26 80 98 60 58 80 62 60 98 32 98 8 54 8 54 28 94 44 30 40 2 28 50 64 82 28 90 92 94 80 70 60 82 44 94 100 14 92 98 8 62 60 78 28 38 44 98 92 46 24 82 56 54 28 70 44 34 24 82 56 22 28 98 60 94 92 10 64 74 76 70 28 94 100 94 80 42 92 82 92 54 64 62 44 38 28 62 96 21 95 1 95 93 87 93 83 93 83 21 79 1 95 1 79 21 99 21 63 21 95 41 75 77 95 57 75 93 51 17 31 1 95 21 95 1 99 57 27 93 79 1 95 5 95 21 99 21 95 21 95 41 31 1 79 57 95 21 27 69 63 57 95 77 95 53 95 57 95 97 95 81 27 37 95 21 95 5 95 57 31 57 63 41 95 57 95 41 95 93 79 93 95 21 95 57 79 5 95 5 79 57 79 57 79 97 35 21 79 25 79 57 63 77 95 89 63 21 63 77 95 9 95 93 63 41 31 57 95 93 79 5 63 97 79 93 79 65 99 89 79 81 63 21 95 5 11 25 79 57 79 41 95 45 63 21 83 97 3 61 63 77 63 97 83 61 99 45 79 57 99 65 99 5 99 5 11 81 95 61 47 5 99 45 79 77 67 45 63 97 99 57 63 61 19 89 47 65 99 93 11 89 67 41 47 61 79 65 47 65 27 73 47 73 83 33 11 77 11 97 11 81 47 61 63 57 11 81 99 5 63 13 63 89 47 89 95 77 95 17 63 69 67 53 67 57 79 45 47 89 31 29 83 77 31 41 99 13 11 89 27 49 23 29 11 57 15 33 63 37 63 89 95 89 83 21 47 89 51 29 67 89 15 53 35 37 11 89 99 89 51 53 47 53 43 77 31 89 67 53 47 89 95 53 27 53 87 53 35 61 83 37 71 89 19 89 67 89 43 89 55 89 31 93 11 89 35 89 35 37 79 73 71 37 47 73 63 49 31 37 27 89 11 37 63 89 79 53 71 53 31 73 47 73 83 73 27 73 47 53 87 89 7 53 71 49 35 73 87 37 15 37 35 73 31 73 35 89 91 37 67 37 79 37 87 89 11 9 87 37 87 37 95 85 95 73 99 37 91 53 79 49 19 73 43 53 71 81 35 9 19 65 83 73 15 37 27 85 99 73 95 37 51 73 19 73 72 86 40 66 40 86 48 86 92 66 48 66 92 66 84 86 52 66 32 66 68 66 20 50 16 86 76 66 72 86 92 66 88 66 48 66 96 86 12 66 60 86 60 66 84 66 92 66 92 66 88 66 52 86 80 66 12 86 68 34 68 86 96 50 92 34 76 66 96 66 84 90 92 86 84 50 76 50 96 66 88 86 64 50 92 74 52 86 12 66 32 78 80 86 100 50 84 50 68 54 88 14 60 66 64 50 48 34 88 50 8 50 92 50 92 74 92 54 96 54 76 86 92 70 80 50 36 66 76 54 96 90 92 86 76 50 92 86 100 54 92 70 92 34 40 70 100 58 12 34 92 34 76 70 92 86 96 90 76 70 92 70 32 70 92 70 76 74 96 34 92 34 92 86 92 34 92 86 80 50 96 14 40 74 92 86 92 34 92 54 76 70 92 94 92 54 72 90 92 22 96 34 40 70 92 38 92 50 48 50 76 70 76 90 76 50 92 90 76 82 92 42 80 34 92 58 40 38 44 98 92 58 92 74 76 74 80 86 76 58 76 74 28 38 96 90 92 90 76 18 96 74 24 58 96 50 76 26 92 34 76 90 60 74 96 70 76 66 60 58 24 46 44 98 76 54 92 18 80 98 24 58 40 98 40 38 100 66 24 18 96 22 24 58 76 74 40 90 76 94 24 22 76 58 80 62 96 2 76 2 76 90 60 58 44 34 60 58 40 78 76 94 8 86 76 78 96 54 24 54 44 62 88 70 96 94 40 38 76 26 96 74 8 94 44 94 76 22 8 42 76 82 8 86 96 66 76 6 76 58 64 38 76 34 60 46 24 78 80 58 8 98 56 18 44 86 8 86 64 46 44 78 80 10 60 78 76 54 64 90 28 42 8 50 64 26 100 98 76 58 96 94 80 26 96 94 64 26 80 82 60 82 28 70 80 94 80 98 28 98 24 50 40 98 76 98 72 93 95 1 95 61 95 1 59 93 83 93 95 57 95 1 83 65 63 93 47 5 63 21 63 57 95 57 71 77 95 93 79 1 95 57 95 1 99 61 95 1 95 41 75 41 95 21 95 21 99 61 95 37 99 93 95 1 79 81 75 41 59 21 95 21 95 57 83 21 99 13 95 93 95 21 83 57 99 97 99 21 95 21 59 93 27 57 99 93 99 57 99 41 95 5 95 41 95 93 99 21 99 21 43 77 95 93 79 45 79 85 99 45 95 93 79 97 95 9 63 65 99 5 95 33 47 37 63 97 79 9 63 5 99 5 79 61 99 41 99 21 79 97 99 21 79 57 35 5 63 61 79 25 99 69 99 57 99 93 31 93 63 37 83 97 47 49 63 77 95 61 99 45 79 85 63 5 63 53 99 1 79 93 99 25 63 77 63 73 63 73 63 5 63 21 63 81 63 61 99 97 63 97 99 61 27 97 99 57 83 77 31 25 95 21 99 9 83 57 51 37 47 49 79 5 39 53 83 13 51 81 67 89 47 61 47 89 87 41 11 77 99 25 83 89 71 89 31 77 83 89 31 97 83 69 47 53 87 89 95 41 47 13 55 41 11 17 99 53 51 61 19 89 11 89 63 89 47 89 67 89 47 93 63 89 11 85 31 89 47 89 31 89 31 89 75 89 63 89 99 89 47 61 31 89 83 89 83 53 15 89 91 57 87 89 51 89 95 89 63 53 99 73 99 37 47 89 95 73 99 53 55 89 51 89 71 73 51 89 63 89 79 53 95 37 91 89 91 53 95 73 15 73 47 89 87 53 55 89 31 37 91 37 95 37 51 41 83 37 51 73 91 1 91 89 47 37 51 61 55 37 71 29 55 73 79 37 31 37 51 37 23 73 55 73 55 77 91 37 55 73 99 65 51 53 83 37 87 89 71 89 47 37 91 89 51 37 83 73 99 37 87 21 55 89 35 93 68 94 76 86 68 66 12 66 40 66 8 94 84 34 52 66 84 98 84 90 68 50 96 70 92 86 88 66 72 14 84 66 52 50 68 66 56 86 80 86 32 66 84 66 64 86 100 86 84 66 8 66 92 66 92 66 68 94 48 86 96 86 96 34 92 66 40 66 92 86 92 70 80 86 88 90 92 66 44 86 92 86 92 70 32 34 76 50 80 14 48 70 68 50 76 86 24 50 96 50 88 70 92 50 92 74 40 50 100 50 64 66 12 94 100 86 96 50 8 50 96 86 72 66 96 14 92 86 76 70 92 34 72 14 12 50 92 86 92 90 76 34 32 86 52 38 92 50 96 94 92 50 92 70 56 34 92 34 92 70 36 34 92 34 52 86 84 34 56 98 92 78 56 58 92 26 92 38 92 50 92 74 92 86 96 94 8 74 92 54 76 34 76 54 92 38 92 30 92 94 92 38 92 86 92 58 64 70 76 86 92 54 60 70 76 34 92 74 76 86 92 78 76 78 92 86 96 26 76 2 60 90 60 42 76 90 76 98 92 18 76 78 92 46 76 94 80 2 76 18 92 90 60 38 76 74 40 34 44 38 40 74 96 26 60 78 8 38 60 46 76 38 60 50 92 34 96 66 60 58 32 10 8 74 92 2 76 22 76 38 96 58 96 98 24 90 8 62 24 42 40 98 96 70 100 70 72 86 96 22 24 22 60 50 60 22 24 42 60 14 92 18 96 82 76 66 60 18 8 86 24 90 76 18 8 74 64 26 60 74 80 2 28 82 8 58 100 54 44 70 76 82 60 62 28 98 8 94 8 54 60 94 80 58 80 22 96 90 8 94 40 42 8 94 60 78 64 26 44 94 64 10 8 78 44 22 44 78 44 42 28 98 28 90 80 98 60 98 76 98 84 94 100 46 96 34 28 90 32 82 44 30 64 46 60 94 8 82 24 78 24 82 92 18 60 66 80 21 95 57 79 1 43 37 95 1 95 93 83 1 95 57 95 93 95 21 95 49 95 1 95 61 39 41 91 97 83 1 79 57 63 93 83 21 63 57 95 41 95 85 39 81 43 5 95 1 79 1 95 93 63 93 79 77 79 21 95 21 95 1 55 77 99 1 95 57 79 77 99 41 27 93 95 77 75 93 79 77 51 61 95 77 83 77 79 5 51 97 95 93 95 69 95 93 67 57 99 41 79 61 99 41 95 21 95 57 79 57 79 5 79 25 99 21 63 21 99 53 99 97 27 29 95 41 99 85 79 21 23 85 79 77 47 45 79 61 99 81 99 5 79 93 79 57 79 61 79 21 79 25 83 97 95 93 63 93 95 85 99 57 79 41 83 57 63 85 63 9 67 5 63 9 27 73 83 61 67 57 95 73 63 9 83 5 11 77 63 21 99 1 79 21 95 29 99 77 67 61 63 89 63 89 47 41 95 37 79 25 79 41 63 77 99 89 51 9 11 97 95 53 83 89 47 97 11 89 31 81 71 57 63 73 27 89 51 41 99 21 99 77 47 89 63 41 31 89 87 89 95 25 67 29 79 93 27 93 15 69 47 61 27 73 47 89 3 45 83 53 3 89 51 89 27 89 99 41 63 89 47 73 83 89 67 89 99 73 99 89 27 89 11 89 31 89 47 89 55 89 99 77 95 73 51 89 83 89 51 89 27 89 79 53 31 89 67 85 35 89 79 37 43 53 67 53 31 89 95 89 87 89 15 89 99 89 51 53 95 89 83 89 67 89 99 89 87 89 99 81 99 81 67 73 83 73 31 89 11 89 87 89 83 89 67 73 55 37 15 37 35 73 91 89 31 73 67 53 63 73 87 73 67 73 55 73 55 73 71 73 47 89 3 49 87 49 87 37 63 37 27 13 19 37 23 37 55 73 31 97 95 89 15 89 51 37 83 53 35 57 79 73 15 73 95 97 68 70 96 38 60 66 60 46 84 66 96 66 68 34 84 66 76 66 4 66 80 86 24 50 88 66 92 66 68 66 28 66 12 66 92 50 76 86 48 34 96 66 48 66 84 66 68 86 64 66 8 66 4 86 92 66 100 66 92 66 100 50 24 66 84 66 68 50 52 34 92 14 48 34 84 26 48 66 44 66 96 66 72 70 28 66 20 50 100 70 76 34 48 34 84 86 88 50 100 66 84 86 80 86 92 66 64 50 68 14 92 86 64 14 92 70 48 66 72 70 16 34 92 86 92 66 88 86 84 70 48 14 68 14 60 90 92 86 44 86 36 34 100 78 80 34 92 70 92 34 76 34 100 74 76 86 80 18 64 18 60 70 84 86 92 18 92 50 92 70 88 66 76 14 92 70 92 50 92 94 76 54 92 50 92 34 80 70 92 18 92 34 92 2 96 94 96 70 92 18 84 54 92 86 24 34 92 94 76 86 92 22 92 86 92 2 92 18 40 38 76 14 76 58 76 82 76 54 76 70 100 86 76 86 92 54 40 42 24 98 60 58 80 62 80 2 76 90 76 38 76 94 76 90 60 34 76 18 96 38 40 94 44 82 76 90 40 2 76 94 24 98 76 82 60 38 100 90 44 14 40 22 92 62 60 94 76 70 40 6 60 54 24 94 28 66 44 54 40 98 24 62 92 2 24 94 60 94 80 38 64 54 44 78 24 10 24 74 8 74 84 66 44 22 96 86 96 98 96 98 96 38 76 34 84 38 84 34 44 62 80 46 8 66 24 54 24 38 80 66 92 58 96 90 60 70 76 74 8 98 44 22 96 46 92 54 36 34 8 78 64 34 8 46 100 14 44 74 76 46 44 30 80 42 84 18 96 66 8 14 48 10 24 26 40 26 80 90 80 46 44 74 44 74 76 82 92 74 8 46 8 22 44 46 28 46 40 82 32 26 72 54 36 90 76 42 8 77 99 57 95 41 63 41 23 41 95 21 71 57 79 81 95 77 83 93 99 65 27 93 79 61 99 1 11 1 79 77 95 57 95 93 95 41 95 21 67 57 95 21 95 57 95 1 79 1 99 89 95 1 95 93 95 57 95 93 79 21 95 97 95 93 95 57 95 57 79 93 95 85 95 21 63 29 83 21 99 93 63 41 95 41 27 21 95 21 79 57 79 93 79 5 99 93 63 77 79 57 99 81 95 41 79 65 95 93 95 57 79 57 95 21 11 1 79 45 83 1 79 97 79 5 11 5 63 1 67 9 11 93 99 61 27 21 99 93 79 77 79 89 63 13 79 85 79 1 63 77 63 45 79 25 99 77 63 25 99 97 27 89 39 81 63 77 79 41 63 61 63 25 95 93 63 45 27 77 11 97 63 93 63 1 63 61 79 5 87 65 99 81 27 89 63 81 63 49 47 41 63 21 79 89 83 45 63 97 63 97 95 9 67 81 47 5 99 93 63 25 79 97 11 57 99 81 91 49 63 41 55 97 83 89 11 73 47 89 95 53 11 41 67 89 63 25 31 73 11 89 47 57 83 89 83 93 11 81 75 53 63 93 47 89 83 89 47 65 31 53 63 53 31 37 47 89 99 65 55 89 27 65 15 89 47 89 47 89 59 53 87 53 79 89 63 89 47 25 95 89 31 81 83 89 71 89 83 89 83 89 91 53 31 89 91 89 35 89 43 89 31 73 99 89 11 53 87 89 87 89 35 89 47 89 51 89 83 89 71 89 27 89 95 37 15 89 31 89 83 37 27 89 35 53 71 89 67 73 31 73 87 73 91 29 35 37 51 53 95 97 83 73 51 73 83 53 91 37 71 85 67 73 91 57 19 37 99 89 87 73 95 89 91 49 67 37 91 53 51 37 63 37 91 89 15 53 67 53 47 37 35 37 27 73 71 61 67 73 15 89 95 37 35 89 35 89 68 66 32 22 68 86 84 14 60 66 48 66 88 94 48 70 92 66 16 98 64 66 92 74 84 62 84 66 48 50 24 86 88 78 20 66 80 66 12 66 68 50 92 50 48 86 12 66 68 66 80 66 92 66 92 66 48 78 88 66 60 50 64 90 44 42 76 66 20 78 12 86 92 66 12 66 76 86 80 66 76 34 48 66 40 38 32 86 76 66 36 86 96 70 84 66 76 50 92 70 16 34 92 50 92 50 92 50 96 86 64 18 68 50 36 50 92 86 96 50 84 70 40 34 76 34 92 70 76 98 100 90 64 34 60 66 48 94 60 86 92 70 84 34 92 70 76 34 92 90 36 34 92 50 96 50 72 34 92 70 92 78 76 86 92 34 92 86 92 18 76 54 60 18 68 86 76 2 64 86 92 94 92 86 92 86 76 94 28 54 48 10 92 90 76 2 92 90 92 98 92 90 92 86 92 90 92 66 76 86 76 54 100 34 60 94 92 6 92 2 40 62 92 78 92 70 96 18 36 58 76 54 92 26 84 90 76 78 92 86 96 38 76 14 40 2 24 94 76 90 76 70 76 26 76 18 92 82 76 86 76 42 100 2 100 74 96 74 76 66 96 70 44 78 92 50 24 90 76 62 80 78 76 50 64 58 76 38 24 98 96 54 40 42 60 86 40 74 24 6 44 46 76 70 60 6 24 2 92 62 24 86 24 46 60 10 60 10 92 70 76 34 96 82 60 94 44 78 64 82 60 94 76 82 72 78 8 50 8 70 40 46 92 82 80 74 80 50 44 38 8 38 68 86 8 54 64 58 80 66 100 94 28 70 60 38 24 10 60 42 76 78 44 66 28 26 76 62 8 42 76 70 28 34 76 22 44 14 64 98 64 10 28 78 96 34 80 90 60 90 60 82 64 78 60 34 96 34 96 66 44 58 100 94 44 98 100 82 8 82 80 94 100 58 24 86 52 57 95 61 99 93 23 21 95 61 3 81 71 93 39 45 95 1 99 93 63 97 95 77 79 21 95 97 95 93 63 93 59 1 71 57 95 41 95 77 95 57 95 97 95 97 95 57 95 97 87 41 95 1 47 93 95 93 95 21 63 77 27 93 95 5 99 93 79 41 95 61 79 21 79 25 95 5 95 97 95 21 79 1 99 21 95 93 63 21 63 85 99 57 95 21 63 21 79 77 95 57 79 61 79 69 95 5 95 5 79 21 95 21 99 57 99 77 79 93 79 21 99 77 87 53 67 57 99 21 79 93 63 61 63 45 79 57 79 93 83 77 47 89 79 93 79 5 99 89 99 41 63 97 79 89 63 57 79 77 63 97 63 97 79 1 79 61 63 97 11 81 63 1 83 93 63 21 63 57 63 77 63 89 63 93 31 21 83 25 99 41 83 73 15 45 99 89 63 97 63 9 63 73 83 53 63 45 83 37 27 77 79 29 47 57 79 89 11 61 99 73 99 57 47 97 15 77 11 65 63 61 47 81 11 93 27 93 11 25 83 77 67 93 11 37 15 53 79 21 99 89 67 93 99 97 3 45 51 57 31 53 47 29 7 73 31 89 99 61 83 89 87 89 31 29 31 89 83 73 83 61 87 89 79 89 99 89 87 73 11 53 87 53 31 89 67 89 63 49 47 53 79 89 31 77 79 73 63 89 31 89 95 53 79 37 67 53 51 89 15 89 55 89 51 89 55 89 71 89 15 89 71 89 19 89 27 53 15 89 47 97 79 73 15 25 71 37 35 89 51 73 15 89 15 89 55 73 71 73 91 37 67 53 15 73 63 73 63 37 15 37 91 73 91 29 95 37 31 37 71 73 31 37 79 89 67 21 71 93 67 73 19 37 55 81 91 81 67 89 95 53 71 73 75 53 47 73 79 73 99 37 83 97 31 73 59 73 15 77 11 37 35 73 19 53 55 93 72 66 24 54 64 86 48 66 92 66 88 66 72 66 8 66 76 30 40 62 48 66 72 66 76 86 64 66 92 66 80 66 52 66 76 86 84 66 40 66 48 66 76 66 28 86 96 22 28 66 92 50 96 66 88 94 32 90 80 54 96 86 36 50 24 54 84 86 92 66 20 50 48 38 80 66 96 14 92 86 16 50 8 86 40 86 52 66 36 66 56 86 76 50 96 50 84 86 48 50 24 50 48 54 88 66 100 86 60 50 40 50 92 86 56 86 44 50 32 70 92 78 76 54 48 70 84 34 92 86 60 86 40 50 44 34 92 50 24 86 72 54 48 34 96 34 76 34 76 70 92 34 84 74 68 74 76 94 68 34 76 14 76 90 80 86 96 70 64 18 12 74 92 94 40 74 96 18 92 74 80 18 92 90 64 94 76 74 92 42 40 86 32 34 92 50 92 14 92 86 92 34 92 38 92 82 92 58 40 62 76 38 96 90 24 90 60 66 76 98 76 62 92 66 12 98 60 98 76 2 60 58 92 70 76 54 76 26 76 18 24 70 92 50 76 62 76 18 76 66 92 18 96 90 84 54 96 70 8 90 76 90 60 14 76 22 76 94 96 90 92 14 40 38 92 70 76 38 24 94 96 66 8 78 92 90 64 82 92 58 24 22 96 70 60 98 40 74 24 90 60 98 24 74 76 74 96 74 40 98 96 74 64 34 24 86 44 22 60 14 60 82 76 90 24 42 68 98 40 26 52 26 44 90 8 86 44 70 64 10 60 10 52 86 28 74 64 58 44 50 96 50 96 98 96 94 80 46 28 46 28 62 96 70 44 98 100 86 8 46 64 78 60 46 80 82 40 94 8 94 44 98 60 18 8 66 64 70 80 90 44 98 64 54 64 22 44 82 64 70 44 74 100 6 64 98 36 42 8 26 64 74 96 22 76 58 92 38 28 62 100 2 72 82 80 46 64 93 79 93 63 93 27 57 47 93 95 77 67 77 99 57 95 57 99 1 95 41 79 25 99 93 27 21 75 57 95 57 79 21 99 93 47 77 99 57 79 21 63 93 95 25 95 93 95 93 95 1 83 93 95 57 79 53 79 77 95 93 99 1 95 93 99 57 95 93 95 61 43 21 79 5 79 89 23 21 95 81 99 21 95 93 95 21 99 57 99 21 79 21 83 77 63 57 63 21 95 57 79 77 79 21 95 21 51 1 47 81 63 1 79 57 95 93 99 93 95 41 99 25 79 93 99 93 95 17 79 89 43 93 95 57 79 5 63 97 63 57 99 41 71 57 63 65 63 77 75 5 83 5 83 41 63 81 99 77 79 41 79 41 83 77 79 5 95 33 83 93 99 61 79 61 87 97 79 41 83 97 83 61 47 77 83 25 63 53 11 41 95 21 99 49 79 29 99 1 63 57 31 25 83 45 51 41 11 5 99 21 63 45 47 89 47 41 83 93 11 25 91 45 47 73 63 81 47 37 11 41 47 5 83 89 47 73 83 53 11 89 35 9 83 93 87 73 83 89 31 49 87 97 31 69 67 93 83 81 35 49 67 93 63 73 99 89 31 89 87 73 99 81 71 89 59 89 47 89 87 53 99 89 91 65 71 89 63 73 87 89 7 89 67 89 95 89 83 89 51 89 83 89 35 53 79 53 87 89 79 89 31 25 87 89 99 89 31 89 15 89 79 89 67 89 63 53 83 73 83 89 87 89 35 37 59 89 51 89 55 73 67 73 87 89 99 73 67 37 91 89 91 73 67 33 67 37 35 89 91 73 63 93 31 53 99 85 91 89 99 5 31 37 51 89 95 37 91 37 63 89 71 89 91 53 51 73 31 73 63 37 51 93 91 73 19 37 31 73 35 65 47 89 83 73 79 73 15 49 91 65 71 73 87 37 59 37 95 69 67 89 39 73 51 73 55 49 88 86 84 98 60 98 44 66 68 90 32 66 16 86 16 66 48 66 32 66 12 90 76 86 56 66 96 66 48 86 48 66 32 54 48 66 92 66 96 86 100 90 52 86 96 66 72 34 24 34 96 86 92 66 48 66 68 50 88 66 68 66 60 66 100 86 100 86 48 50 68 86 92 66 76 50 96 86 32 66 64 50 76 66 72 86 64 70 68 50 96 86 80 50 88 14 84 86 68 50 76 86 48 50 76 86 16 90 92 66 92 86 100 70 92 62 76 54 76 66 40 66 76 26 40 50 96 50 92 50 72 34 72 42 96 50 12 86 60 38 64 66 92 90 36 34 92 34 96 70 92 14 92 86 92 86 92 34 92 50 92 14 92 70 92 10 92 58 8 70 96 90 92 90 92 66 100 46 92 34 92 70 92 70 92 18 40 54 92 66 76 70 96 34 92 54 84 54 92 34 76 54 92 54 92 38 92 90 40 82 92 18 76 50 96 70 96 54 76 70 40 66 92 90 76 70 76 82 92 94 76 46 40 50 76 38 64 34 76 74 96 74 76 94 76 18 96 98 76 18 92 74 76 98 92 22 60 18 76 38 96 18 76 74 60 82 96 54 60 50 96 42 96 50 92 50 60 94 76 18 96 34 40 38 96 26 76 38 40 86 76 62 60 22 76 58 24 38 64 86 60 38 60 90 24 82 28 78 44 18 80 54 60 54 8 74 76 78 60 6 84 90 64 86 80 50 96 34 100 90 80 50 80 50 28 46 24 94 44 82 80 58 100 22 64 82 64 26 100 26 8 90 60 70 96 46 64 82 8 58 100 94 80 54 100 74 8 2 64 58 80 82 8 78 72 26 40 70 48 90 100 46 44 90 8 38 28 94 96 2 28 46 100 70 40 86 96 54 28 54 88 22 96 82 28 82 40 78 64 78 28 38 44 26 80 18 24 62 40 38 100 62 100 62 52 54 60 57 71 45 51 61 27 1 39 25 51 57 51 93 79 41 95 45 39 1 95 93 95 57 99 61 63 57 79 61 99 1 71 41 95 21 27 1 95 97 95 93 79 57 95 41 99 41 83 57 95 57 95 1 87 97 63 57 79 21 79 93 79 41 99 77 79 57 63 21 95 93 79 57 79 21 67 21 95 21 95 41 79 21 95 57 95 57 79 41 27 77 95 5 99 77 83 21 99 5 95 21 79 41 99 93 51 41 95 57 51 93 99 93 99 57 79 41 95 61 79 57 43 1 79 57 63 65 95 77 95 93 63 93 83 61 63 5 63 1 99 9 79 25 99 29 99 45 79 61 79 21 99 21 47 97 63 41 79 25 99 61 99 73 63 77 63 77 63 57 63 41 99 57 99 77 63 77 99 73 63 41 95 45 83 41 11 77 63 89 99 65 79 89 79 73 79 89 67 41 27 45 47 25 47 89 63 9 63 97 63 97 99 69 67 89 83 65 99 9 95 37 79 61 39 85 67 41 31 5 47 89 87 81 99 53 67 89 47 89 67 89 79 89 31 97 11 61 67 89 87 45 91 89 71 89 95 89 11 89 47 97 83 89 31 53 67 97 47 57 15 29 99 89 31 89 11 77 31 89 39 89 31 89 15 89 15 45 27 89 31 89 35 53 31 89 79 53 99 89 47 89 99 89 83 89 35 73 95 73 31 89 39 89 23 73 71 89 71 89 71 21 11 89 79 89 15 89 71 53 19 53 95 37 71 73 47 89 91 73 79 53 51 89 83 89 35 89 19 73 87 81 63 73 99 73 15 81 99 89 99 73 83 37 47 73 35 73 51 89 99 57 95 73 47 73 87 37 67 37 83 73 47 53 59 73 51 53 63 73 95 73 83 37 67 37 63 73 47 49 79 73 39 89 19 37 71 89 27 89 11 73 67 53 35 37 11 53 79 73 35 85 67 41 99 89 31 77 96 70 100 86 92 66 84 94 92 70 60 86 92 66 84 86 48 70 76 46 76 14 32 54 84 86 92 66 92 86 40 98 32 66 72 66 84 50 84 86 92 98 52 66 92 42 92 66 48 50 88 86 48 66 68 66 52 70 48 66 76 86 92 66 76 66 32 86 96 50 32 66 84 66 96 66 8 86 68 86 64 50 76 34 64 90 96 50 68 50 24 66 96 86 52 74 84 50 64 90 88 50 60 50 80 86 60 14 100 70 92 86 92 70 76 66 64 70 92 14 76 86 68 70 84 94 92 82 12 42 92 90 40 50 76 90 60 86 92 74 60 34 84 50 92 90 92 86 80 86 96 70 60 86 76 66 76 70 32 86 84 86 76 86 48 50 92 50 32 66 56 50 96 98 92 90 80 90 92 66 44 74 48 86 92 58 92 94 92 90 40 78 80 38 40 18 60 50 92 30 92 58 92 14 76 14 92 86 92 78 76 70 92 18 92 26 32 74 76 70 92 94 92 54 64 38 96 34 76 66 92 42 76 86 76 90 76 18 92 58 76 50 92 98 84 22 92 62 64 54 76 86 40 82 76 98 96 50 92 34 64 26 76 34 76 58 76 78 60 70 76 70 60 34 96 74 60 70 96 22 24 58 60 94 76 94 60 42 8 42 24 86 24 70 64 26 96 54 60 70 96 58 24 98 24 66 24 14 60 62 24 34 24 78 96 22 44 2 96 70 24 90 76 70 76 90 80 34 60 38 8 6 76 94 8 74 76 74 8 10 80 6 60 62 96 90 44 74 80 74 60 70 8 82 64 82 8 10 8 90 8 90 44 62 8 70 76 74 44 70 28 54 96 98 100 82 8 14 28 30 64 58 100 30 64 94 80 86 24 38 80 98 36 98 100 34 80 62 44 98 100 70 44 62 24 46 96 90 64 18 28 58 76 78 96 58 64 78 40 94 28 62 64 82 28 94 44 93 79 77 99 93 39 93 79 57 95 41 59 81 79 33 95 97 95 97 83 97 79 21 23 93 95 57 95 1 3 21 79 93 83 21 99 57 95 41 95 1 83 93 79 21 99 93 95 57 63 57 99 93 67 77 95 21 79 21 95 41 95 57 95 65 99 89 79 21 79 57 79 1 99 1 99 57 95 53 91 21 95 21 95 77 99 89 71 41 95 57 95 21 95 93 95 57 47 5 59 21 95 5 67 61 99 5 79 57 79 81 95 21 99 65 63 93 83 41 99 41 63 41 79 89 79 57 63 25 79 5 95 5 63 65 79 93 79 97 99 29 63 89 99 77 79 5 63 77 99 61 79 45 63 9 63 1 99 25 99 41 99 21 63 77 63 21 99 25 79 97 63 5 63 77 99 5 99 13 63 93 99 61 83 93 63 89 79 65 47 41 63 41 63 81 31 41 63 25 31 73 11 45 83 21 83 41 35 89 99 45 47 41 83 89 63 89 63 61 83 81 99 93 95 41 11 5 47 73 47 41 99 53 67 73 15 97 47 73 83 81 11 57 83 93 15 69 31 89 99 69 83 89 91 89 83 85 19 65 67 65 11 53 31 61 99 77 47 61 31 89 83 81 95 97 19 73 35 97 11 89 67 89 71 89 99 89 27 89 99 89 27 73 71 41 47 89 99 89 99 53 99 89 11 65 47 41 87 89 63 89 95 89 91 89 7 89 23 73 99 89 63 53 99 73 31 89 55 37 35 89 47 89 11 89 27 37 79 89 91 45 47 73 31 73 51 53 63 73 35 89 79 73 15 89 67 89 15 73 31 37 27 