57 95 41 79 1 95 1 95 1 95 1 95 77 95 69 95 61 11 9 95 1 95 89 95 53 95 89 27 81 83 93 75 1 83 41 95 65 83 1 95 9 59 89 99 89 27 89 83 53 55 89 83 89 63 77 63 53 99 89 87 53 11 97 47 53 31 33 72 70 84 90 28 66 92 66 96 86 16 86 60 70 48 66 40 50 68 66 52 42 92 14 92 66 48 58 60 86 92 14 92 50 40 90 92 90 60 50 60 50 76 66 4 70 60 98 76 94 44 42 68 34 96 74 8 34 44 94 100 90 92 54 8 62 60 85 67 1 87 61 79 21 99 1 95 21 95 77 67 53 83 1 95 77 27 1 79 57 79 57 47 89 79 97 95 21 27 1 27 97 99 93 67 81 95 37 27 73 99 89 47 93 11 53 87 53 87 53 83 53 55 53 35 73 51 37 67 37 51 53 95 29 52 66 44 94 76 58 96 66 96 66 68 66 40 34 96 86 76 14 92 34 76 14 84 66 92 82 92 18 92 74 92 94 44 50 40 98 92 54 80 34 100 50 76 74 76 66 96 98 68 66 100 58 44 46 76 78 48 66 40 90 24 98 100 66 60 42 88 1 95 93 95 1 95 1 95 1 95 21 95 1 95 25 79 41 79 57 95 97 79 29 79 1 11 85 27 77 67 21 27 41 63 53 87 97 99 9 99 1 83 73 27 53 83 89 67 89 83 41 51 53 67 53 87 53 79 89 27 89 87 85 79 97 95 89 96 86 96 50 72 66 96 66 80 66 80 66 96 50 92 14 84 66 76 14 76 70 96 14 24 14 92 34 76 86 100 70 92 86 92 86 92 74 76 90 40 74 40 70 92 86 96 90 40 82 24 94 40 66 100 2 60 18 76 78 84 50 56 22 84 86 60 89 95 21 95 1 95 1 99 1 95 1 95 77 95 41 95 93 95 33 95 93 79 89 99 77 99 73 27 97 27 97 27 53 63 61 87 69 67 65 79 89 95 45 11 89 63 89 87 89 27 89 99 53 91 89 63 89 99 37 63 53 75 89 99 89 35 73 84 34 32 50 60 86 80 14 88 86 92 98 92 50 52 50 92 50 76 14 92 14 40 50 92 86 16 14 92 86 76 66 60 54 92 70 44 18 40 46 40 34 40 50 40 78 60 82 24 66 100 94 60 10 8 98 44 14 24 74 24 78 96 98 80 26 80 77 99 93 95 37 79 1 79 57 79 1 95 77 95 61 95 41 95 93 79 93 79 93 79 1 99 85 99 41 79 5 27 17 47 25 95 93 43 5 11 89 99 73 47 53 51 45 11 89 15 53 83 53 95 53 99 37 31 73 31 89 83 37 83 89 47 53 40 66 68 66 88 66 48 66 100 66 96 66 80 66 76 66 92 14 64 14 40 66 76 66 92 86 40 34 76 98 92 58 92 70 48 70 76 86 72 66 40 78 24 50 40 94 60 30 24 50 80 42 24 66 64 18 8 70 96 86 100 54 8 42 92 42 100 93 95 77 79 21 95 1 99 77 95 21 95 77 95 61 95 25 95 61 95 57 99 93 79 61 63 73 79 89 99 21 63 49 27 25 11 89 11 89 15 65 91 53 47 89 63 89 31 53 91 89 91 65 79 53 87 53 31 73 79 37 95 97 87 97 83 37 68 86 84 66 32 50 96 66 48 66 44 66 76 90 24 50 88 90 92 94 80 54 8 74 92 70 92 50 92 18 92 70 40 46 92 6 40 66 76 86 40 34 96 98 76 50 60 86 24 66 80 82 40 38 44 74 60 54 8 58 80 58 8 14 80 82 56 97 79 1 95 9 63 57 99 57 99 41 95 21 95 57 79 5 99 9 79 93 79 81 79 25 79 5 27 97 63 21 63 93 99 97 47 45 11 89 11 1 15 89 99 61 67 89 35 89 31 89 87 53 15 29 83 89 31 37 63 37 35 37 55 37 83 89 96 66 16 86 36 90 12 66 60 74 68 66 92 50 72 50 92 50 76 18 92 50 76 54 76 50 92 42 92 94 92 50 64 66 92 58 76 18 92 2 92 34 60 42 24 94 24 98 60 98 44 58 76 62 60 78 76 90 96 66 24 62 36 70 56 82 64 57 95 21 23 21 95 93 95 57 63 1 47 21 95 21 79 57 95 41 79 29 79 93 79 45 67 73 63 73 99 77 63 77 47 97 99 93 47 29 63 73 31 89 87 89 35 25 83 73 51 89 31 37 15 9 51 73 99 37 11 37 35 37 99 29 83 65 12 78 52 94 36 66 96 50 60 66 12 86 40 70 60 66 12 86 92 34 84 70 92 50 92 34 76 34 76 18 92 18 92 34 92 90 24 42 76 66 76 50 76 82 60 74 24 86 24 78 44 18 80 18 8 94 8 98 44 98 64 30 100 58 52 94 100 57 95 93 83 57 47 93 99 21 95 5 99 21 87 21 59 1 99 25 39 5 99 77 99 57 99 77 63 57 63 1 47 45 99 89 47 57 67 53 31 21 31 73 47 33 31 89 63 89 63 89 31 89 55 89 31 73 15 73 67 53 99 73 87 73 99 73 96 50 84 86 20 66 68 86 92 86 76 86 64 66 92 86 92 66 96 34 88 34 76 34 84 70 80 50 92 54 92 62 92 50 96 98 80 18 76 54 24 74 96 70 60 78 60 90 96 62 44 46 44 74 28 54 60 58 28 86 80 74 52 42 80 6 96 21 95 57 99 93 99 57 87 21 95 21 63 57 95 21 63 5 95 41 99 5 99 41 99 57 99 45 99 41 99 81 83 93 47 93 47 45 47 73 67 73 47 93 83 89 95 89 83 73 67 73 79 37 31 73 99 73 15 73 71 73 55 73 91 37 99 65 36 86 96 86 48 74 12 74 84 86 48 86 88 86 64 86 84 86 100 50 40 86 96 70 76 38 92 90 92 58 40 54 92 18 76 2 76 90 60 54 96 70 96 94 60 70 60 94 8 58 60 58 8 54 76 42 96 82 44 18 84 94 8 78 28 98 64 93 99 77 99 93 63 61 79 57 79 57 99 57 99 57 95 93 99 5 99 21 99 97 95 57 99 93 99 77 83 41 47 97 83 65 95 25 47 65 83 33 31 89 31 73 15 89 67 73 83 89 67 73 31 73 95 73 71 73 91 73 15 73 95 89 67 25 44 66 88 70 24 74 12 66 88 86 76 14 40 50 84 86 60 86 92 86 12 86 68 70 80 18 76 90 76 18 32 18 80 38 96 94 96 18 96 74 60 50 40 54 36 90 60 74 76 78 60 94 44 42 44 26 96 54 72 78 28 62 28 62 40 46 96 57 67 57 47 93 63 93 63 57 95 57 63 77 67 41 79 41 99 29 99 41 99 77 99 25 99 97 83 41 99 77 83 41 67 57 83 21 31 93 67 73 67 73 67 73 83 89 31 81 15 45 87 25 15 73 15 73 71 73 55 73 35 73 67 73 79 25 12 66 88 70 96 90 48 70 40 78 84 38 32 78 96 82 72 70 32 50 76 70 92 70 68 90 60 54 68 70 28 78 92 18 76 2 80 18 76 90 64 22 76 58 96 50 96 86 40 74 44 46 44 26 60 90 44 62 28 94 44 82 28 46 80 70 80 93 95 93 51 93 99 41 75 93 95 57 71 93 83 5 99 41 83 41 51 97 83 25 79 93 83 41 27 61 55 81 83 21 83 41 67 45 67 45 67 9 83 97 67 65 83 53 15 69 15 73 67 89 35 73 35 53 47 61 51 73 63 89 67 89 87 73 88 86 60 58 36 70 100 74 60 86 48 86 72 50 16 86 80 70 32 34 100 70 88 70 88 38 40 54 92 54 100 54 76 74 96 54 60 38 96 38 96 90 96 22 96 62 96 42 80 94 80 94 100 10 80 78 28 70 28 78 64 82 28 74 64 90 64 57 71 93 95 57 99 93 91 93 99 93 7 77 79 41 99 41 99 61 83 41 83 25 83 61 99 25 67 45 95 57 67 61 99 93 67 81 47 85 67 73 67 77 87 21 91 89 51 69 87 89 51 29 83 89 83 65 55 73 15 37 19 73 51 81 35 37 88 50 48 86 12 66 84 38 68 86 48 70 12 86 72 50 48 34 72 86 48 90 12 70 96 18 48 54 12 54 80 54 96 74 60 98 80 22 28 74 96 38 96 22 96 74 80 66 80 98 80 26 80 74 60 82 28 18 28 26 28 42 28 50 64 46 100 93 3 93 55 77 3 93 95 93 79 93 63 93 95 77 51 57 43 77 79 25 95 25 11 25 79 5 95 61 99 73 99 1 83 45 3 29 63 69 67 97 87 9 63 53 51 29 51 33 51 21 35 73 35 77 75 93 55 57 91 61 35 49 19 9 11 73 32 86 48 86 88 70 84 86 48 86 12 50 12 66 48 66 48 70 32 54 36 90 96 70 76 54 32 90 80 90 60 74 32 38 80 38 96 58 96 94 96 18 96 74 80 22 44 62 80 94 80 58 64 6 100 78 64 26 64 10 64 66 64 62 92 26 56 93 43 97 23 77 43 93 95 93 99 77 79 77 83 77 39 77 59 77 91 25 31 45 79 25 79 97 99 25 71 61 27 85 67 61 83 97 55 97 87 29 67 73 71 13 51 73 51 97 51 77 71 49 35 97 67 89 35 73 19 89 19 65 87 37 83 33 68 90 24 50 52 82 48 90 48 34 48 86 12 58 92 90 48 70 12 18 96 78 84 90 32 74 32 90 28 90 76 90 100 38 52 74 80 38 80 58 96 58 80 22 92 22 96 94 100 6 80 6 80 94 100 62 64 94 64 6 64 2 64 78 64 78 8 93 95 93 95 93 99 97 51 77 75 93 3 77 3 77 99 77 99 97 35 45 83 61 67 61 83 25 7 9 23 9 83 81 75 45 83 29 67 81 67 49 47 61 51 61 35 65 91 5 55 13 71 65 35 89 35 93 63 73 67 77 15 89 71 89 83 45 84 86 32 86 84 46 12 94 48 90 68 86 48 14 68 38 12 70 32 46 88 94 100 90 88 90 16 90 32 90 76 90 60 78 100 46 80 2 80 58 60 22 60 94 80 46 64 70 68 98 80 42 100 46 100 78 100 70 64 26 100 74 100 78 64 26 24 41 39 77 43 93 3 77 67 77 83 57 63 77 83 25 63 45 99 93 75 61 7 61 83 41 71 33 79 45 63 21 67 93 71 33 51 45 15 13 87 81 87 37 87 81 87 93 87 65 67 49 71 69 35 45 35 49 35 89 71 61 19 93 19 21 71 37 12 54 84 54 48 78 48 90 48 90 48 90 84 70 48 90 56 90 32 54 52 90 88 38 100 38 68 74 72 78 84 2 100 74 44 74 80 74 84 94 44 58 72 58 64 2 80 58 100 86 64 46 100 58 100 54 100 90 100 98 60 46 60 58 100 98 64 93 39 93 83 97 39 97 3 61 51 5 3 77 99 97 99 97 67 9 27 61 47 97 75 45 7 81 83 45 67 45 71 29 99 45 83 29 51 49 87 81 87 45 87 45 87 85 71 81 71 97 87 97 71 13 71 73 19 57 19 77 19 89 55 97 71 53 84 74 48 66 84 86 52 58 84 54 84 50 32 86 32 66 32 62 32 78 100 10 36 74 52 90 72 74 80 74 72 74 88 10 84 74 76 94 52 58 96 6 100 58 100 98 44 6 100 6 100 6 100 82 100 98 100 18 100 22 100 62 76 26 100 42 100 77 75 97 87 93 3 97 27 61 3 77 23 93 99 97 3 97 75 97 39 97 51 97 63 81 23 97 71 45 67 65 99 45 99 9 47 65 95 45 87 13 87 85 87 77 79 65 87 41 3 13 71 81 71 73 71 85 71 29 91 93 87 53 87 93 71 85 84 86 84 78 84 70 4 46 84 90 84 78 68 90 12 14 32 98 32 70 16 90 32 94 68 86 100 94 16 54 24 90 64 90 52 54 32 58 68 6 100 6 96 42 80 78 100 82 64 6 100 42 100 42 100 82 100 94 100 26 64 62 100 98 96 6 36 93 75 97 87 93 3 57 87 69 39 97 3 93 3 97 3 97 51 97 23 61 99 97 23 81 67 61 91 61 23 97 99 41 99 29 83 81 75 97 91 97 67 29 91 93 99 69 71 29 35 53 71 97 71 33 55 61 55 81 91 33 55 29 55 29 87 77 84 98 84 86 84 30 68 10 84 74 84 98 32 62 68 74 68 90 52 70 64 46 100 90 16 22 52 74 36 94 88 78 52 74 96 6 16 58 80 94 100 74 92 42 100 42 64 42 96 94 64 82 100 82 96 86 100 62 100 62 100 62 100 98 52 26 100 81 39 93 39 97 75 57 75 93 39 61 3 45 39 65 23 97 7 97 99 45 43 81 51 81 7 81 63 81 55 81 75 97 87 29 99 65 71 85 71 13 55 49 55 13 99 81 55 37 55 45 55 13 59 89 55 13 55 73 55 85 55 49 91 1 91 85 84 82 88 74 84 98 72 14 20 90 72 62 68 90 68 94 68 46 16 6 84 74 96 42 88 94 16 74 36 94 36 94 68 98 80 94 16 94 44 94 52 74 36 58 80 42 100 42 100 42 40 94 68 26 100 98 64 90 100 94 100 46 100 26 92 62 100 93 23 93 79 97 75 97 59 97 39 77 39 97 39 85 59 81 63 81 23 97 59 97 23 81 67 81 63 81 51 65 95 65 47 29 71 49 87 85 75 49 87 13 87 13 51 85 75 73 27 77 71 45 55 69 55 65 91 45 91 57 91 69 91 81 35 53 60 90 52 38 28 66 48 66 84 10 68 42 68 70 84 46 64 82 52 70 32 90 52 98 52 94 52 74 80 98 72 58 4 94 36 94 48 74 56 94 36 94 80 78 92 42 56 78 60 62 80 26 100 26 100 26 80 34 100 82 72 10 84 46 96 98 56 81 75 41 39 65 75 93 75 81 39 65 95 81 39 57 99 65 39 93 23 77 23 81 79 81 51 57 43 45 75 57 7 65 87 85 87 85 15 49 91 97 91 49 71 69 71 13 91 13 87 93 91 33 91 33 91 81 91 49 71 17 55 65 91 17 91 17 72 38 88 98 84 66 84 74 88 98 84 58 52 90 68 70 48 86 52 42 88 30 52 82 52 86 80 78 36 90 80 78 88 6 32 94 72 98 96 94 56 78 68 98 80 78 72 78 28 82 84 26 20 26 76 70 100 82 96 6 100 10 36 14 24 2 76 97 75 57 43 61 75 81 75 25 75 25 39 57 75 65 23 65 23 81 63 85 7 81 91 81 35 81 99 65 87 9 71 65 51 49 23 65 7 65 91 65 35 49 71 49 47 69 87 29 55 85 91 73 11 85 91 81 91 73 55 69 91 17 91 77 87 17 68 86 84 94 16 86 88 86 88 86 68 30 68 74 68 86 100 98 88 82 16 94 88 98 52 94 56 74 36 90 52 78 36 98 4 94 84 82 96 78 20 78 100 90 96 78 100 78 100 62 100 62 80 62 96 46 100 42 88 10 76 10 100 14 80 82 80 93 91 21 75 25 75 29 75 69 75 93 75 65 59 81 59 97 59 77 7 81 59 85 7 97 7 65 7 49 39 65 39 97 55 85 35 85 91 49 87 49 71 49 91 5 51 33 35 17 55 85 91 77 91 69 71 69 91 13 91 93 91 17 51 69 87 69 16 78 84 94 84 62 84 30 84 82 72 94 68 10 84 30 88 62 88 86 88 74 72 82 88 78 72 74 72 94 16 58 52 90 36 90 20 94 96 78 88 78 80 98 72 58 56 62 76 62 100 62 64 62 28 62 100 62 56 10 56 82 64 10 64 10 96 97 43 49 99 73 75 41 75 97 39 17 75 41 75 85 59 97 59 81 23 49 23 81 7 81 7 69 7 33 59 85 43 65 75 69 23 85 83 69 87 49 55 85 91 77 91 33 55 33 91 29 91 61 91 81 91 81 91 85 91 85 91 17 63 53 71 69 84 70 84 86 68 94 68 30 84 30 88 30 44 94 52 38 88 78 88 90 88 42 88 34 72 98 52 98 36 94 56 98 72 26 20 78 20 46 56 98 96 98 72 98 48 46 60 62 36 62 36 98 96 62 100 62 64 46 100 46 64 46 96 46 28 46 76 73 75 97 99 65 39 93 23 93 75 97 43 93 59 45 59 13 59 97 7 81 43 29 91 97 43 81 7 13 43 29 99 85 23 77 91 73 3 85 91 85 91 85 91 49 71 33 91 17 67 49 91 85 91 33 11 41 91 61 91 69 55 69 91 69 87 85 88 86 88 70 36 70 68 30 16 70 88 74 88 94 88 98 68 90 68 74 88 30 88 90 88 94 72 90 72 78 36 74 20 90 4 98 20 22 88 78 56 10 4 78 20 82 4 78 88 98 88 98 56 98 64 46 68 78 80 46 44 98 64 46 80 62 56 25 39 77 87 93 75 61 91 61 75 97 59 85 95 49 59 89 75 29 3 81 43 85 43 69 7 69 75 69 43 85 23 85 75 85 59 85 87 85 7 85 71 69 91 69 91 69 91 97 55 69 87 17 91 73 47 85 91 17 71 69 87 69 51 85 91 49 32 78 68 34 68 78 16 30 88 30 88 30 96 30 68 54 68 30 20 30 72 70 52 94 16 30 72 22 72 82 72 30 72 50 56 42 20 98 56 98 56 98 4 98 92 98 56 98 88 98 44 98 8 98 56 82 68 46 44 46 20 82 64 98 56 90 92 93 23 77 39 81 75 77 75 73 75 65 75 97 23 69 59 81 59 97 59 65 43 69 43 85 75 85 67 49 43 81 47 85 7 85 43 81 43 69 55 85 15 49 95 69 67 69 91 69 19 13 35 69 91 17 39 85 83 85 55 17 91 85 91 97 51 17 68 82 68 30 72 30 68 30 68 30 68 30 40 30 88 30 88 30 20 78 88 14 88 6 36 10 72 82 56 78 72 94 56 94 56 98 92 62 56 98 56 98 56 98 20 98 16 98 96 98 92 82 96 98 100 62 88 82 4 82 44 98 96 82 96 46 96 85 59 85 67 73 75 97 83 81 39 97 47 81 59 97 99 81 55 57 39 41 43 9 43 45 43 97 39 65 31 97 7 85 55 85 55 77 43 69 87 85 67 81 91 69 91 69 67 69 55 73 91 65 91 17 91 25 91 1 55 69 15 85 91 89 71 73 48 94 88 46 88 30 100 74 88 82 72 30 88 94 84 30 88 34 88 30 64 70 72 82 88 94 88 82 52 78 56 94 56 90 52 98 56 82 56 78 56 78 36 6 72 98 36 46 20 98 64 82 64 98 64 98 72 82 20 82 100 46 56 82 80 82 84 97 27 97 59 97 7 97 43 85 23 85 51 77 59 65 23 65 59 1 39 81 79 97 43 57 43 97 59 81 83 85 19 85 75 29 11 33 19 65 23 85 39 65 55 69 91 69 19 97 67 69 71 17 91 85 91 69 91 97 87 33 91 13 91 49 3 57 84 78 84 74 40 26 84 78 88 30 32 94 52 78 72 30 84 94 56 94 48 82 72 78 72 94 76 78 52 98 56 74 72 98 56 98 56 82 72 82 40 62 100 98 56 98 100 82 88 30 80 98 60 98 36 82 56 82 60 82 8 82 60 62 56 82 64 61 47 77 51 61 39 45 71 97 59 49 43 57 59 97 43 77 43 89 7 69 23 69 43 9 59 57 43 49 43 65 75 97 23 85 63 85 55 49 43 69 55 49 51 97 83 69 43 69 91 13 91 17 71 69 55 13 43 69 91 33 55 85 19 69 7 17 60 74 68 30 68 14 88 98 36 30 36 22 72 54 88 98 88 38 72 34 32 98 72 78 72 86 80 98 36 78 56 82 4 98 84 62 88 98 56 98 72 94 4 82 92 98 36 82 4 78 72 22 100 82 56 82 56 98 88 82 64 98 100 10 96 94 96 97 51 5 99 97 87 97 59 97 59 29 99 65 87 93 87 57 59 85 55 85 43 1 75 85 43 93 43 81 43 33 91 49 35 41 3 85 67 69 55 85 79 17 91 69 95 69 43 85 91 69 59 69 91 49 43 65 87 81 99 17 95 85 79 69 43 57