93 67 65 79 29 71 89 83 1 95 21 95 1 95 61 95 97 95 1 95 93 95 57 95 93 79 57 95 1 95 93 79 93 79 69 95 93 95 89 95 93 95 93 79 89 95 57 63 41 99 77 95 1 83 53 95 1 27 53 47 89 27 61 15 53 35 21 63 89 83 93 31 37 27 57 43 73 63 89 55 5 83 89 47 53 67 57 91 89 87 37 67 65 71 65 87 89 47 53 67 5 87 53 47 73 51 89 63 29 56 94 84 66 24 66 92 66 44 50 92 86 24 46 76 46 100 70 88 86 96 66 12 62 84 34 28 86 92 82 28 66 76 66 80 14 32 98 100 50 28 54 52 70 100 14 40 14 76 66 60 58 76 34 92 62 40 34 92 58 76 42 92 50 76 90 92 70 80 34 40 90 24 38 80 70 40 50 76 34 24 74 92 66 40 22 96 34 76 82 24 90 32 94 80 26 72 90 60 50 96 74 88 38 40 86 96 74 44 21 95 77 79 25 79 93 95 1 95 21 99 1 79 41 95 1 95 93 95 1 95 57 95 1 83 89 95 49 59 21 79 81 63 57 47 77 63 97 75 81 63 41 67 77 99 21 63 61 79 89 27 45 99 93 27 57 95 93 83 73 55 93 99 85 27 89 27 41 11 9 95 37 95 97 79 73 27 93 31 53 67 57 51 73 99 53 95 53 95 53 79 73 27 57 51 89 35 53 47 53 51 37 55 61 15 89 79 89 76 94 44 14 24 50 92 86 88 74 92 86 92 66 44 66 16 70 88 74 84 70 92 66 44 66 48 66 88 66 92 34 92 94 76 34 76 86 92 90 92 14 40 50 92 86 76 98 92 54 80 54 76 94 92 46 40 58 92 66 92 74 92 18 92 86 100 98 76 18 96 98 40 86 96 98 60 82 76 70 92 90 60 90 80 38 40 90 52 38 96 14 24 50 8 94 96 74 8 46 44 62 44 6 80 90 100 94 76 1 79 1 99 1 63 21 95 1 95 1 95 1 95 1 95 1 79 61 95 21 95 97 79 93 79 89 79 61 83 1 95 53 79 81 63 93 79 61 79 93 27 65 27 89 63 97 11 41 95 41 47 89 63 37 63 37 27 65 55 93 27 61 31 89 27 97 87 73 95 1 31 41 79 53 51 89 19 53 95 37 91 85 71 53 47 53 95 73 83 13 95 89 83 53 67 89 79 53 79 37 67 69 83 41 91 73 99 49 52 86 48 34 84 66 100 66 76 50 48 50 76 66 48 66 88 66 92 86 76 66 16 70 92 22 92 74 12 86 32 38 64 50 92 74 76 66 92 34 92 50 92 86 88 34 92 34 44 18 92 34 80 90 40 62 76 50 24 54 68 54 96 18 28 58 60 78 40 26 40 38 40 98 96 22 92 86 64 42 96 54 92 94 92 14 8 90 64 6 92 94 96 94 60 86 64 94 88 34 100 46 64 86 76 66 76 74 84 1 79 1 95 1 75 1 95 41 95 1 47 1 95 1 3 77 95 93 95 93 95 1 27 57 79 93 95 57 27 1 83 1 79 89 99 57 79 25 79 57 63 93 75 77 99 89 79 81 79 93 27 57 27 37 87 93 63 29 99 41 99 73 95 73 83 53 27 53 79 37 87 81 43 73 67 29 83 89 99 37 15 53 87 89 87 53 95 93 47 89 35 53 11 25 11 21 75 89 83 89 87 93 79 25 67 53 87 69 84 66 12 86 92 66 32 66 48 90 16 66 48 50 48 14 80 66 68 66 100 34 92 50 32 14 100 14 92 66 16 14 92 90 100 66 92 50 92 66 76 70 92 50 92 86 92 14 76 18 92 86 92 98 92 50 92 70 92 94 68 78 24 90 40 38 76 18 96 50 92 82 96 38 60 54 60 70 80 66 64 2 44 2 60 22 24 2 64 94 60 98 84 94 96 2 40 58 44 38 80 22 72 98 16 34 100 54 40 93 63 73 47 41 95 53 95 1 95 1 83 1 95 49 95 1 95 1 95 93 95 57 95 41 95 21 95 77 95 57 79 57 95 93 79 1 95 65 79 77 95 37 63 61 79 65 47 77 27 73 63 73 27 81 27 21 39 5 63 89 51 1 19 53 95 89 47 89 47 73 47 97 11 25 67 89 27 85 95 89 83 53 87 53 35 53 99 73 95 73 95 37 31 73 11 37 79 93 31 37 55 97 15 53 99 37 11 89 12 34 44 98 92 14 60 66 84 70 76 66 12 66 84 26 76 50 92 58 96 66 100 58 84 50 92 50 96 14 80 66 40 70 96 42 80 14 92 34 76 14 92 58 40 34 76 66 40 54 92 70 92 90 76 54 92 14 92 70 100 66 40 62 60 66 40 66 76 34 76 66 52 2 60 94 64 46 80 42 60 58 80 10 24 86 96 78 96 58 12 94 96 86 8 38 80 86 84 94 44 74 24 6 100 78 96 82 44 81 95 1 63 93 79 1 95 1 87 1 95 1 3 1 95 1 95 1 95 77 95 1 95 1 95 89 95 97 95 97 79 29 27 5 79 77 79 53 95 21 79 97 79 77 27 65 63 81 27 5 27 77 83 61 63 89 67 53 27 1 31 73 99 53 11 53 79 89 11 73 67 53 87 53 67 53 51 85 99 89 95 53 99 89 75 89 87 89 67 85 79 73 71 53 99 89 11 21 91 73 99 37 55 37 79 41 91 41 68 66 40 78 92 50 72 50 92 70 84 66 24 66 92 66 68 66 24 66 92 14 92 50 80 70 88 14 52 90 80 66 80 70 92 66 8 50 92 50 92 86 92 46 92 86 92 62 92 54 88 66 96 22 40 2 92 86 36 86 92 46 60 78 76 66 24 66 40 54 76 66 40 78 96 70 48 46 96 38 24 42 96 86 96 66 64 54 76 98 96 46 8 78 100 78 8 70 88 34 28 14 84 98 76 50 80 18 28 1 63 1 47 77 95 1 99 1 95 1 95 1 95 1 95 1 95 1 95 21 95 1 95 41 95 93 95 1 79 41 79 77 79 93 79 1 79 5 79 53 79 1 27 81 27 53 27 73 27 1 27 61 27 57 11 65 11 89 95 53 47 73 47 73 99 89 83 73 31 73 11 89 27 89 31 89 63 53 87 89 27 53 95 53 11 53 99 73 31 53 31 89 27 73 67 89 27 37 63 53 63 53 47 73 79 89 99 53 76 14 84 50 44 66 100 66 56 66 80 66 48 66 60 66 36 66 92 66 92 66 40 66 92 66 92 50 92 34 92 14 76 50 88 50 92 86 92 70 92 14 48 14 92 74 92 90 76 38 60 14 92 50 92 50 96 86 76 14 48 82 24 6 80 78 40 50 60 10 40 82 60 18 96 54 56 98 44 42 24 90 64 90 92 22 96 74 80 50 92 94 40 98 80 58 44 2 28 74 44 70 96 98 100 94 80 50 28 21 99 57 95 77 75 93 67 1 95 21 95 21 79 1 47 57 95 25 95 97 95 41 95 57 95 93 79 77 79 45 79 73 79 25 79 21 79 41 95 93 79 97 67 61 63 61 59 97 79 61 63 97 63 93 67 89 99 73 79 81 11 89 91 73 11 73 11 89 83 89 31 89 83 53 27 53 31 53 51 53 31 93 35 45 83 53 83 73 99 37 15 89 47 37 63 89 75 37 87 97 79 37 31 53 63 81 99 89 80 66 92 54 88 66 84 86 60 66 92 66 48 66 68 66 44 66 48 66 92 66 32 50 84 50 76 50 28 50 92 14 92 70 76 34 92 86 92 50 92 86 92 14 76 86 92 38 92 46 92 38 92 90 92 86 84 90 64 90 48 70 40 94 40 70 76 38 68 70 60 98 64 74 80 74 88 94 24 46 76 78 76 18 84 6 60 78 80 90 24 94 96 42 60 46 100 26 44 94 52 78 64 70 52 26 96 62 80 33 95 1 75 57 95 1 95 1 83 93 95 57 91 45 67 21 79 93 95 1 63 21 79 21 99 57 95 9 79 41 99 57 79 29 79 65 79 29 83 93 79 53 63 5 79 85 63 77 63 89 95 93 11 41 11 89 11 97 11 73 11 89 11 97 67 89 83 57 11 89 75 93 47 89 11 37 31 53 11 89 95 53 11 53 95 53 91 53 87 53 71 89 63 37 91 21 47 81 83 97 79 73 87 37 83 89 15 77 12 14 84 66 84 66 68 70 48 70 76 66 64 66 76 66 92 66 92 90 80 66 24 50 92 50 100 50 92 50 44 66 92 14 64 14 96 86 92 90 92 50 92 50 96 90 92 74 92 50 92 90 92 86 92 22 76 38 60 90 8 78 92 62 40 86 40 86 40 38 40 46 76 90 40 38 24 26 24 10 24 54 24 78 96 82 76 42 92 82 76 26 24 82 4 46 92 42 64 50 60 70 28 58 44 82 64 74 80 21 83 41 95 77 63 21 95 25 95 1 95 41 95 25 79 21 23 57 95 65 75 21 95 21 99 85 63 41 27 21 79 77 79 37 79 41 79 5 99 93 63 5 63 5 63 61 99 93 59 89 79 37 99 29 11 77 11 5 11 57 11 45 11 37 27 53 83 57 87 89 91 89 83 53 91 89 83 89 83 89 99 53 99 53 47 89 71 53 59 37 87 37 83 37 27 37 87 73 31 37 55 93 31 73 11 89 99 37 96 66 52 66 88 58 84 66 20 66 28 66 52 66 16 66 48 66 88 50 40 86 20 50 76 34 48 50 36 86 92 86 12 50 60 94 92 54 80 34 92 34 60 74 92 42 92 90 92 34 92 22 92 14 92 54 76 74 92 94 48 50 40 70 76 38 76 46 80 86 24 70 40 34 60 86 24 74 24 58 96 74 8 46 24 86 8 58 100 74 60 18 64 98 28 98 64 66 80 42 28 90 44 90 8 70 76 78 64 97 99 61 95 93 95 57 95 21 47 21 95 21 95 21 75 21 95 21 71 77 95 77 79 77 95 21 79 41 79 61 99 61 79 41 79 21 79 89 99 93 79 21 99 61 63 45 63 61 27 45 47 5 99 77 83 69 99 21 63 61 11 69 11 57 11 73 31 73 63 93 67 85 27 89 15 89 31 89 83 89 35 89 47 89 91 89 47 37 67 37 15 37 91 37 19 37 51 37 31 37 63 73 71 73 87 73 71 73 44 66 12 86 56 66 32 70 92 66 44 66 100 50 80 74 100 66 28 50 40 50 92 50 32 50 16 50 32 86 92 50 60 50 92 54 100 34 64 34 92 70 80 34 92 70 92 46 80 66 92 58 76 18 92 50 92 98 76 70 76 2 76 58 96 90 76 18 96 86 60 90 76 82 64 34 60 62 24 42 24 74 76 22 60 34 44 98 64 38 8 26 44 94 8 2 24 70 100 90 100 26 8 42 44 70 60 78 80 93 99 93 83 93 63 93 79 21 99 21 95 61 95 57 95 21 95 21 95 21 95 21 43 21 79 21 79 97 79 25 79 69 99 93 99 61 63 77 99 73 63 97 63 77 63 25 63 97 63 41 27 33 67 97 47 89 63 61 47 89 47 73 83 89 35 89 99 37 83 57 11 89 87 53 67 89 55 89 31 89 51 89 99 89 15 89 15 73 87 37 83 73 83 53 51 37 35 89 95 89 71 73 91 37 63 89 35 57 64 50 48 90 72 66 84 34 100 50 96 82 72 66 76 50 12 66 88 34 52 86 92 50 68 50 80 50 100 50 96 50 76 54 100 34 68 34 92 34 76 50 92 46 92 14 92 70 92 50 92 54 92 82 92 66 92 58 76 2 44 70 76 18 76 42 76 70 92 54 60 34 60 2 24 94 24 86 24 30 96 94 80 34 28 74 8 2 8 94 100 94 8 42 44 22 76 82 40 98 28 62 96 34 60 98 68 90 80 5 91 93 35 77 99 5 95 81 91 21 83 21 95 21 83 21 95 21 63 57 99 41 99 21 79 21 99 97 99 5 95 93 99 1 79 21 63 61 63 25 63 21 75 29 99 13 79 61 47 5 63 73 47 93 83 45 47 97 47 97 47 89 47 73 11 81 63 97 31 85 31 89 15 89 11 89 51 53 31 89 71 89 15 89 75 73 11 37 63 89 15 73 99 73 87 53 47 73 91 53 67 89 79 89 35 37 51 97 96 86 84 66 36 66 84 66 68 66 36 86 48 66 80 66 76 66 100 34 76 70 48 50 92 50 84 86 92 86 92 50 92 70 84 34 100 34 100 34 92 34 100 86 88 74 92 50 92 90 96 74 92 74 92 34 24 70 76 70 76 90 76 66 60 54 96 74 40 62 76 62 64 34 60 54 60 38 60 94 8 66 28 86 44 74 60 98 8 2 8 14 8 54 24 78 8 62 96 42 44 82 44 46 96 70 80 38 80 57 95 93 95 93 95 61 95 93 91 57 79 93 79 57 31 57 95 21 99 21 95 81 95 93 47 41 99 21 27 21 99 21 63 57 99 5 99 25 99 41 99 25 99 21 99 97 63 73 83 25 63 21 47 5 47 41 99 29 47 9 67 29 47 89 11 73 83 89 15 37 71 53 67 81 15 89 63 89 51 89 63 37 99 73 71 81 67 73 31 73 63 73 87 37 31 73 83 61 55 73 79 73 71 17 47 73 35 73 88 62 68 94 84 90 84 74 36 98 60 70 68 86 24 86 92 78 36 86 80 86 92 86 84 86 84 86 8 66 92 50 60 34 76 34 28 34 36 34 72 50 92 70 76 70 44 18 32 18 24 22 76 50 92 70 76 90 96 90 40 58 76 70 76 34 80 78 60 94 60 42 60 58 60 94 60 82 92 30 60 38 8 94 100 34 96 38 8 10 28 74 96 86 96 78 28 78 80 66 40 26 24 98 80 54 64 98 80 41 51 57 99 97 95 77 99 77 75 21 79 21 87 21 99 21 79 93 99 21 99 41 99 41 83 57 99 5 63 5 79 5 79 97 99 33 99 41 99 77 99 93 99 77 99 45 99 25 47 45 47 89 47 81 99 61 11 73 99 89 31 73 83 61 63 89 51 89 47 85 47 89 67 89 79 73 27 89 31 89 31 73 35 89 15 89 19 73 79 73 43 73 51 73 79 73 83 53 71 73 51 89 87 93 75 73 91 53 88 10 56 94 84 50 24 70 12 66 84 66 44 86 96 86 60 86 48 86 88 86 56 86 80 86 96 86 60 70 40 54 36 86 92 70 96 34 92 34 92 34 92 14 76 34 92 38 68 62 76 74 92 18 96 86 80 18 76 94 76 18 76 74 76 38 60 86 76 58 60 94 76 26 60 66 60 78 96 82 60 94 44 22 24 94 8 42 80 74 80 78 8 46 8 62 64 98 44 74 8 46 28 94 8 78 64 98 96 93 31 57 99 93 3 93 79 57 79 21 95 57 79 21 63 77 63 5 99 61 99 93 79 5 59 5 79 5 99 29 47 21 99 93 99 25 99 41 99 5 99 25 99 73 99 81 99 61 47 61 99 9 95 93 99 89 67 73 99 5 87 57 99 89 31 49 31 53 31 49 63 89 51 89 71 89 87 89 31 89 19 89 31 89 71 89 87 13 67 73 47 73 83 73 87 53 19 73 51 89 91 37 67 37 99 49 91 73 12 66 68 58 60 66 16 34 52 94 52 86 12 66 32 70 52 70 100 86 12 86 68 70 28 86 44 86 60 70 68 50 84 70 56 70 96 70 92 70 92 18 64 34 76 82 92 18 80 18 88 18 72 26 60 66 100 38 40 2 92 42 60 2 88 90 76 94 60 14 96 74 60 94 96 74 96 66 76 98 80 2 60 82 44 94 44 66 44 78 44 98 96 46 96 94 64 50 28 90 76 58 28 46 28 66 76 78 60 85 23 93 43 77 47 93 99 57 95 57 79 57 63 57 99 57 95 57 99 21 79 61 71 41 99 61 27 5 95 5 63 57 75 89 99 45 99 57 99 61 99 21 99 93 99 29 99 61 99 29 83 1 47 89 99 21 63 45 63 9 83 41 83 57 47 65 31 89 31 65 31 73 51 89 79 73 15 89 11 37 83 89 51 73 67 89 87 73 55 73 31 73 15 73 87 73 79 73 67 89 71 89 15 65 31 73 51 13 32 66 4 54 84 90 48 86 84 14 48 86 32 86 96 86 44 86 12 86 56 86 48 86 96 62 84 86 60 70 56 70 68 70 72 90 32 70 56 50 96 34 44 70 92 34 72 18 48 74 60 54 72 18 100 22 92 54 96 90 96 50 96 2 92 94 60 18 96 74 64 22 60 2 60 58 96 38 96 94 96 98 44 46 44 42 96 74 28 78 76 98 28 78 76 58 28 2 60 74 96 98 80 94 92 78 64 46 96 77 47 93 95 93 91 57 79 57 99 93 95 57 83 57 55 77 83 57 95 57 63 57 79 93 99 77 83 41 99 93 99 41 47 77 99 21 27 57 99 77 83 45 99 93 99 25 83 81 83 77 55 93 83 97 67 77 11 77 99 57 67 89 67 85 83 93 67 41 31 61 67 49 99 89 47 1 79 89 51 65 15 97 15 73 99 73 87 89 91 73 55 41 15 73 3 73 47 73 87 73 35 73 19 45 51 73 55 73 12 66 84 86 80 66 12 86 88 6 48 86 68 14 32 66 72 70 68 86 48 86 96 86 84 86 12 70 92 70 64 70 92 70 16 70 84 70 92 70 92 70 40 54 68 18 76 18 28 18 68 54 76 18 76 54 44 18 60 62 80 18 96 94 76 6 96 94 96 94 96 86 96 90 96 74 96 90 60 74 96 74 44 74 44 74 44 78 44 94 100 82 100 90 40 54 80 94 60 46 96 62 44 70 96 46 64 94 80 77 95 57 39 57 59 93 67 93 67 93 87 25 91 57 99 57 79 57 63 77 67 41 99 77 59 93 79 41 83 41 99 41 99 81 99 5 87 41 99 57 99 45 51 41 95 77 83 93 83 81 83 81 83 9 83 45 83 85 67 93 43 5 31 73 31 89 87 9 79 93 91 85 15 61 67 73 99 89 87 73 15 29 55 73 19 89 83 73 87 73 15 73 35 85 15 61 51 73 67 73 91 85 87 73 91 49 71 73 84 70 88 50 52 34 32 90 68 86 96 86 96 86 12 90 88 86 12 70 32 86 80 86 20 70 60 70 84 70 72 50 96 70 84 70 24 86 100 70 96 50 40 50 96 54 96 54 36 18 100 18 76 54 60 70 92 14 28 38 60 2 80 50 96 94 76 90 96 74 96 90 96 34 96 18 80 98 44 58 80 94 80 74 8 86 44 70 44 98 28 82 44 98 96 62 28 54 80 26 28 26 64 78 96 6 64 26 100 21 79 77 23 93 99 93 47 93 95 57 95 93 95 57 79 57 95 57 99 77 99 57 99 41 99 41 99 41 99 77 43 41 27 21 99 61 99 65 55 61 63 45 47 61 99 77 83 93 47 49 83 1 83 61 67 21 83 97 67 61 67 45 67 77 67 89 15 89 99 81 31 89 83 89 15 73 15 93 15 73 15 89 71 97 31 89 19 73 51 73 19 9 83 97 91 73 51 89 35 73 75 77 19 97 55 65 87 53 88 86 52 86 84 94 84 86 44 86 92 66 40 70 52 86 84 86 92 38 32 70 36 90 20 86 100 70 92 86 60 70 100 98 60 50 76 70 96 58 92 54 92 90 76 54 76 50 80 54 88 74 76 54 96 86 52 2 96 2 80 2 96 58 92 18 96 18 96 90 96 90 96 78 96 38 96 62 64 70 80 22 76 78 80 94 80 54 44 94 96 62 60 74 100 98 28 86 28 98 28 54 40 18 60 82 100 82 72 93 87 21 79 93 99 93 91 93 83 93 99 93 71 93 95 93 95 57 31 93 99 77 63 41 63 41 99 57 99 41 99 1 99 93 99 41 99 25 99 45 99 61 99 97 99 61 67 41 99 97 27 89 83 57 83 57 83 61 67 65 27 93 67 33 67 9 67 25 67 13 31 97 47 65 67 13 15 77 15 81 15 89 67 85 67 73 23 73 71 73 95 73 91 53 51 37 91 89 91 77 71 85 47 97 35 9 31 49 84 54 36 70 88 86 72 86 92 86 92 86 92 66 84 86 68 86 68 98 48 66 100 86 48 70 92 86 84 86 60 70 76 70 40 86 68 70 12 90 16 54 96 54 80 54 32 54 92 54 80 90 80 90 60 74 88 78 96 2 76 2 72 78 96 90 96 90 96 90 96 2 96 42 64 70 80 62 80 10 80 54 80 54 44 38 44 98 80 94 28 94 28 78 44 94 28 82 28 46 28 38 28 10 92 98 64 70 28 45 83 57 79 97 55 77 47 93 7 93 83 93 99 61 59 93 99 77 79 77 71 77 39 41 51 77 99 73 99 57 99 41 31 77 59 41 99 41 99 97 63 25 83 41 99 97 99 57 63 9 83 65 79 65 99 29 11 37 67 9 83 65 67 45 67 65 67 81 67 77 15 85 67 97 51 29 51 89 15 85 15 89 87 41 51 53 99 53 79 89 47 41 55 81 19 89 79 77 83 89 31 93 35 85 35 37 35 81 48 50 12 86 88 50 100 86 84 98 84 86 48 14 48 38 72 18 12 82 48 30 12 86 84 70 88 70 52 90 84 94 60 86 12 74 92 70 84 54 24 90 52 54 32 50 32 54 92 54 88 38 76 70 80 38 44 38 96 2 96 54 96 62 96 46 96 94 96 74 60 38 96 42 88 22 96 6 80 6 80 98 80 22 44 6 80 78 92 94 28 10 64 90 28 42 28 34 44 82 28 2 80 66 28 62 100 98 64 57 87 93 83 97 95 93 83 93 91 93 83 93 99 93 3 93 99 93 99 77 55 77 99 77 23 77 99 25 99 97 99 29 83 45 99 61 83 61 99 25 99 25 99 93 83 81 51 77 99 85 79 77 91 89 83 61 23 81 67 5 51 65 67 61 67 9 67 21 71 17 99 53 51 61 51 77 35 45 99 81 35 13 87 73 51 97 51 85 47 73 71 97 51 53 95 89 43 73 79 89 67 73 51 57 83 85 31 89 12 74 84 66 48 54 36 90 84 2 84 86 48 70 32 66 48 86 12 50 84 86 12 86 84 90 100 90 32 90 84 54 84 70 84 90 84 86 52 90 76 90 60 54 76 54 96 54 48 54 16 90 92 54 48 38 96 18 80 74 16 42 96 74 92 38 96 94 96 94 76 34 40 94 96 78 80 54 80 42 80 90 80 22 80 94 80 94 64 82 64 62 64 46 44 94 64 10 64 58 28 78 60 62 52 82 100 62 28 85 51 93 83 5 99 93 79 57 79 93 67 93 79 93 99 93 83 77 75 93 83 77 51 41 71 77 71 41 39 25 99 97 63 25 75 25 71 25 99 21 83 77 67 45 67 25 11 9 87 9 83 9 87 9 47 45 23 97 67 29 67 89 67 97 67 49 67 1 35 9 87 29 51 81 51 81 99 93 55 57 35 73 19 73 71 97 83 73 95 53 35 45 87 53 51 37 51 73 55 93 87 65 71 65 55 61 91 85 68 58 68 66 48 86 48 86 8 90 4 94 68 54 48 34 84 86 12 70 12 86 12 18 84 66 48 90 76 70 12 70 16 90 76 90 92 78 48 90 52 6 48 90 96 90 96 74 60 82 64 38 80 38 48 38 80 38 92 38 76 98 96 86 16 70 96 70 80 58 60 22 64 70 64 54 80 38 96 42 80 26 80 78 100 98 80 6 44 54 64 26 64 82 64 98 64 98 80 98 64 26 100 22 64 58 100 58 64 93 39 77 99 77 59 93 75 77 95 57 51 93 79 93 95 93 79 93 87 77 3 77 11 77 99 93 83 41 99 57 87 61 83 25 99 9 83 25 83 85 35 45 59 9 39 25 51 9 95 89 83 25 83 93 83 9 35 97 87 81 51 61 83 89 67 29 31 45 51 21 67 93 51 97 51 37 51 73 51 61 35 89 35 81 35 89 35 53 35 85 87 33 19 57 51 89 39 81 19 85 55 81 55 73 35 81 55 25 84 66 84 54 48 86 84 50 48 90 76 70 68 98 68 74 52 70 52 86 84 38 36 86 12 70 68 70 68 70 44 10 12 38 52 90 84 90 100 90 68 90 72 90 96 90 24 74 96 58 32 38 60 74 80 86 16 74 60 54 96 22 96 22 96 22 96 74 80 98 96 22 20 62 80 74 80 54 96 98 96 6 80 26 60 94 64 98 64 82 64 74 80 62 64 46 64 78 100 26 24 94 28 94 44 58 80 26 76 93 87 93 71 93 39 93 79 93 83 57 87 93 95 93 23 25 75 77 87 77 99 77 99 77 59 81 87 77 95 97 99 41 71 81 59 61 59 61 67 9 87 77 79 81 83 9 51 9 83 97 67 97 99 9 99 45 99 49 87 57 67 65 67 13 91 53 83 97 87 61 51 89 87 73 63 93 51 77 95 65 83 69 35 25 55 89 35 61 35 85 91 81 55 73 71 89 99 89 19 73 27 73 83 89 83 73 35 65 96 70 48 90 48 62 84 90 40 86 48 50 12 54 88 66 84 22 48 66 84 90 48 50 48 86 92 70 84 70 88 98 12 70 92 90 16 90 80 90 52 90 84 90 80 90 44 90 80 70 84 58 96 38 60 90 88 78 96 6 80 94 16 94 44 62 80 54 96 94 80 54 60 42 68 38 68 54 80 94 60 6 100 98 80 98 100 22 100 82 64 94 64 98 64 62 100 10 64 98 80 46 64 58 100 98 64 10 80 57 99 93 59 5 95 41 39 57 59 93 3 93 79 77 23 77 75 77 19 77 99 77 95 77 83 77 39 61 83 97 39 61 91 61 23 61 99 61 47 97 3 97 99 61 83 45 23 9 67 93 51 9 87 25 95 45 83 29 99 45 71 81 67 29 87 1 87 81 35 61 51 13 15 97 67 61 99 53 35 57 79 85 35 25 87 89 35 29 35 97 35 77 35 73 83 85 79 69 99 49 79 65 91 73 19 89 91 93 36 74 52 90 84 90 32 66 48 74 48 70 48 78 48 70 48 86 68 66 84 90 84 18 84 90 48 90 68 14 32 74 52 90 12 38 52 90 32 90 64 90 48 90 72 90 64 90 96 74 56 90 96 74 16 74 76 58 96 74 96 94 96 74 80 94 80 22 96 22 96 58 88 70 76 46 12 94 32 42 80 6 100 74 96 98 100 82 24 78 100 22 64 62 100 46 100 78 64 98 72 42 100 58 28 2 64 90 80 97 79 93 79 93 67 77 75 93 47 93 3 93 79 57 47 89 59 77 83 85 99 77 99 77 99 77 83 97 3 61 75 61 67 61 99 61 99 61 83 29 51 25 87 61 87 97 95 77 83 97 99 9 35 25 99 45 63 49 55 29 67 33 63 5 51 93 91 29 87 97 87 73 67 45 87 53 15 73 71 77 35 49 35 73 35 81 35 53 91 93 91 77 87 17 71 73 19 33 19 73 95 25 67 89 19 93 19 85 48 86 84 14 84 70 48 66 84 18 20 82 32 90 48 70 48 90 84 18 68 90 16 66 84 90 68 14 48 70 32 90 68 94 48 86 32 70 76 94 32 90 88 90 16 90 100 74 20 82 32 74 48 90 76 74 52 74 80 74 96 58 100 58 96 78 24 22 100 22 100 6 96 58 100 42 80 74 44 78 96 6 80 46 100 22 64 6 64 74 76 22 64 62 64 42 100 82 100 78 80 90 100 10 100 82 100 86 64 1 95 77 39 97 59 93 75 93 91 61 67 77 99 77 39 77 3 41 3 61 51 97 99 77 75 97 43 61 3 45 3 61 51 61 79 45 23 65 39 81 63 9 83 81 67 9 59 81 83 45 39 9 87 97 71 61 15 65 67 61 99 29 15 33 71 13 87 81 87 69 87 89 87 73 87 69 87 33 87 49 51 69 71 49 87 61 35 61 35 49 71 85 15 97 19 41 91 65 19 37 71 69 71 13 55 5 19 29 84 70 84 14 72 54 68 86 76 94 84 38 48 86 48 90 48 90 48 66 12 70 32 86 32 90 48 94 32 90 32 82 100 90 44 86 32 90 16 90 84 94 88 90 88 74 20 90 88 70 48 74 76 74 68 74 80 74 24 74 92 22 8 58 20 58 96 74 80 58 44 58 80 58 76 94 96 6 80 42 80 6 100 26 100 6 100 6 80 94 100 62 100 42 100 78 100 94 80 62 28 82 88 94 36 98 96 26 80 45 87 5 59 93 75 77 23 93 91 77 3 57 39 45 23 77 99 77 3 97 75 93 39 61 3 61 23 97 95 93 99 77 95 97 67 61 7 61 87 61 47 77 95 45 51 29 27 45 27 45 35 9 87 45 91 13 67 9 83 9 87 61 87 41 71 81 87 85 87 65 87 85 71 81 35 69 87 37 35 93 87 53 71 65 87 85 19 97 91 49 51 89 19 9 19 85 19 81 19 57 19 65 87 49 19 49 19 65 84 74 48 86 68 66 84 66 84 86 84 14 84 74 84 90 48 66 76 70 48 78 32 74 32 54 32 78 32 70 48 86 32 38 32 94 68 90 16 90 88 50 80 74 16 70 32 74 36 42 92 74 100 58 80 58 72 74 96 58 20 74 60 74 96 74 96 42 76 94 40 94 80 94 80 38 80 94 100 6 100 98 100 22 100 94 100 34 100 98 100 78 100 30 100 10 100 98 100 46 100 94 64 82 64 10 60 46 100 93 75 45 3 77 59 93 67 77 75 61 95 85 99 77 59 73 3 65 3 61 7 97 3 29 99 77 99 97 31 97 99 25 99 61 95 61 79 61 23 97 91 45 83 45 87 45 59 45 31 45 99 45 79 29 83 29 87 13 39 81 71 45 87 13 95 49 87 41 91 81 87 29 71 13 35 81 63 41 67 17 55 13 55 85 87 13 71 89 55 29 87 49 55 89 55 85 19 97 19 69 91 45 91 45 71 13 71 89 84 82 68 66 48 58 84 62 84 22 48 70 84 94 68 74 68 86 32 98 48 74 56 70 12 66 32 66 32 78 32 90 32 86 40 54 16 54 68 90 88 86 88 90 84 90 36 74 80 66 80 94 52 78 100 74 64 74 16 74 8 58 80 58 96 58 64 58 80 78 72 94 52 6 96 94 28 46 76 90 96 42 100 62 100 94 100 94 100 10 100 26 100 78 100 98 100 46 100 98 100 62 64 98 44 62 56 10 48 97 23 77 95 9 59 65 39 93 99 41 95 81 63 97 3 81 39 81 3 97 3 9 3 97 71 97 39 97 95 97 75 61 71 97 43 93 99 81 99 65 99 45 3 45 87 45 99 41 83 77 75 65 99 77 27 29 67 97 87 97 63 25 31 29 31 93 67 65 87 49 87 65 71 81 71 33 71 33 71 81 71 65 71 45 71 49 71 89 55 29 71 85 71 93 19 65 55 37 19 81 19 1 19 25 19 81 71 65 84 94 84 70 84 50 48 62 84 30 84 90 84 78 84 94 84 46 32 98 68 86 84 34 68 18 68 86 32 86 52 74 16 74 88 90 16 90 68 90 36 94 68 90 92 94 88 74 88 94 36 58 96 54 32 74 88 90 32 58 60 58 80 58 80 58 100 42 96 98 80 58 80 78 100 78 100 6 80 78 100 6 80 42 100 58 100 26 100 6 100 18 100 58 96 62 100 94 100 94 64 70 80 58 100 82 96 10 100 93 59 77 59 93 39 85 43 53 39 97 59 97 83 61 75 97 3 93 47 85 3 49 43 77 71 97 99 97 23 97 3 97 87 61 43 25 79 81 63 97 59 45 67 45 75 65 39 77 71 29 11 45 83 49 87 29 71 29 95 85 87 29 83 13 87 65 87 49 83 69 87 49 87 81 71 89 91 61 71 97 71 89 71 85 55 61 71 61 71 69 91 73 55 97 55 81 35 97 19 73 55 61 19 65 55 97 31 81 52 90 84 58 68 78 36 86 84 86 84 70 84 90 52 62 84 90 84 82 92 70 84 74 32 74 68 90 68 90 16 94 16 90 68 90 36 98 40 90 16 82 72 94 88 90 84 82 96 82 4 98 52 74 16 38 84 98 36 94 52 78 100 58 20 58 100 58 100 42 96 78 84 78 100 94 20 58 64 42 100 94 96 98 100 78 100 98 100 78 100 42 100 94 52 26 100 78 100 26 100 82 100 10 28 10 100 62 44 93 95 77 75 57 83 77 79 93 75 93 39 93 91 97 27 97 19 61 3 61 75 97 3 97 63 61 59 97 75 97 47 97 99 45 23 81 3 81 71 73 39 81 95 57 39 45 63 45 19 61 23 29 39 45 83 29 51 29 75 65 91 77 87 29 71 49 87 81 87 9 87 69 87 85 87 89 83 65 71 29 71 17 71 61 71 81 71 45 71 25 55 85 55 77 55 85 55 57 55 73 55 49 91 89 55 81 71 17 84 98 68 58 84 54 68 90 84 50 16 94 84 66 84 90 84 82 68 66 68 90 68 82 32 98 32 90 56 98 68 50 84 90 68 98 16 86 16 74 16 58 52 38 52 74 88 66 100 94 16 98 68 62 36 98 96 94 16 94 4 94 72 58 60 58 52 42 100 58 68 94 100 74 88 42 36 42 20 42 72 62 80 42 100 58 100 10 44 90 64 98 100 46 64 78 60 82 100 10 64 26 96 82 52 46 100 82 100 93 43 97 39 73 75 97 59 77 39 65 23 77 39 65 39 69 39 97 71 81 3 77 39 97 63 97 75 97 87 81 99 97 23 97 23 97 23 81 47 97 23 81 23 81 35 45 23 81 67 65 51 97 71 29 35 29 87 29 11 29 83 65 87 65 71 61 71 13 87 13 67 13 87 57 55 49 71 65 71 49 71 29 71 57 91 45 71 73 87 61 91 77 55 53 55 69 55 33 51 45 91 93 51 81 91 93 55 81 48 98 84 38 84 38 84 86 84 58 68 86 84 54 84 50 84 70 68 38 32 78 68 90 68 86 68 74 68 50 100 66 52 58 88 58 16 94 16 74 16 74 68 74 36 94 84 38 52 82 16 74 96 82 72 74 96 94 52 6 12 94 36 94 100 94 8 94 80 94 84 42 100 74 72 94 68 42 96 42 84 26 76 78 100 74 64 42 64 26 100 98 100 98 100 78 100 10 100 98 8 78 100 62 56 74 96 98 92 73 59 41 39 93 95 97 39 65 39 97 87 85 3 77 79 57 59 77 75 57 75 25 7 97 75 65 75 97 75 61 3 77 7 97 39 45 95 97 31 81 71 85 7 81 95 97 71 85 51 97 95 97 95 29 87 61 99 97 79 29 75 13 95 13 55 65 63 13 71 13 71 17 91 49 55 85 71 97 55 33 71 49 71 85 87 69 55 25 91 77 55 57 55 13 91 57 55 25 91 57 71 65 35 69 55 81 91 5 84 70 56 98 84 94 84 78 84 66 68 74 48 94 84 30 96 70 84 86 68 90 68 22 68 90 68 38 84 66 52 94 48 62 52 22 84 78 52 94 16 54 88 78 88 74 88 78 12 94 52 94 76 94 52 94 88 94 88 94 44 94 56 94 88 94 88 94 16 74 80 94 36 42 100 42 56 94 80 78 80 26 60 26 100 94 100 26 100 42 100 26 100 26 92 78 64 94 84 98 64 74 100 98 64 82 80 94 100 65 95 61 75 57 43 41 75 61 39 61 63 45 91 97 75 33 39 97 39 93 59 57 3 61 39 93 59 49 3 97 23 97 23 97 99 81 71 65 23 81 71 81 51 81 67 97 7 81 79 49 51 65 51 65 51 65 87 65 75 69 71 65 39 65 71 13 83 13 99 13 87 33 71 13 71 69 87 77 71 85 55 97 55 37 91 81 91 85 91 65 91 29 71 93 71 33 71 29 55 89 91 65 71 69 91 5 55 97 84 10 80 86 96 10 76 70 56 86 84 90 48 90 68 46 68 74 68 42 68 90 68 94 68 62 68 86 52 54 84 70 52 74 68 70 52 26 52 54 88 70 52 78 36 38 52 70 88 50 84 94 88 74 36 94 44 94 56 94 80 94 100 94 28 94 20 78 64 78 80 94 52 78 96 42 100 10 100 78 100 26 72 98 80 26 100 10 80 26 28 82 76 98 100 78 68 10 28 78 100 82 96 82 64 94 100 82 64 97 75 69 99 41 59 93 3 65 75 61 39 57 39 61 39 9 39 61 39 97 39 81 75 97 23 97 75 97 87 65 23 49 39 81 43 81 59 65 95 97 55 97 67 9 75 61 75 77 43 49 23 65 51 65 91 29 67 65 71 65 87 65 87 69 23 13 71 13 87 13 71 65 55 33 71 33 95 85 87 85 67 81 35 33 55 85 55 93 91 89 91 77 91 49 55 13 55 45 91 93 91 85 91 93 15 49 99 13 72 18 48 42 84 66 68 46 12 94 68 34 84 50 84 2 68 82 84 74 68 98 36 38 68 90 52 62 68 78 52 42 52 90 52 90 88 78 52 74 52 98 32 74 48 90 52 82 56 18 88 54 56 90 88 58 88 94 68 94 88 94 64 78 100 94 80 94 100 10 80 78 80 78 64 78 28 98 44 62 4 42 100 98 100 62 100 26 100 98 100 26 76 26 60 10 32 46 100 10 100 10 64 82 100 94 52 46 16 61 83 77 31 97 75 49 59 97 59 65 75 77 75 97 75 69 39 97 39 97 39 61 59 81 39 85 23 81 67 9 23 97 23 81 23 97 27 81 47 81 99 81 87 81 83 81 63 85 75 65 87 65 83 65 83 65 7 65 59 33 43 65 87 65 91 49 71 85 71 49 83 85 91 13 91 65 35 65 71 81 39 29 91 13 51 61 71 33 91 33 91 33 91 77 91 17 91 81 91 85 55 85 91 45 91 69 91 85 84 50 84 86 80 74 84 66 68 54 68 66 68 62 68 74 52 42 84 90 32 90 68 54 52 98 84 94 88 58 52 38 84 42 88 74 88 74 52 46 72 94 36 54 60 94 68 46 60 46 20 26 36 90 36 98 92 78 84 58 100 58 88 94 12 78 4 78 76 78 100 78 96 78 56 78 36 78 96 98 100 90 100 78 96 62 64 6 100 26 88 10 96 94 100 46 48 98 64 10 80 98 100 6 100 94 4 46 100 93 31 85 75 93 59 93 39 93 75 97 75 65 75 97 75 97 39 89 39 81 75 97 23 81 59 81 23 81 23 81 23 49 39 81 23 29 23 81 43 61 31 65 7 81 43 29 7 81 67 65 87 65 87 65 67 57 55 81 91 97 43 49 71 49 63 49 91 69 43 29 91 13 55 33 55 49 47 33 43 45 19 93 91 73 91 17 91 65 91 69 91 69 91 69 91 85 91 85 83 69 91 89 91 33 75 49 91 69 84 98 92 90 84 78 88 30 84 86 52 34 68 54 88 94 68 86 48 38 36 22 84 98 88 66 88 58 68 98 68 82 88 98 88 78 88 98 88 78 52 90 68 90 36 94 36 82 36 78 72 30 52 78 36 98 96 58 52 94 20 94 20 94 80 94 80 78 88 78 72 78 16 78 84 98 72 26 100 62 100 98 88 62 64 62 20 62 100 62 64 46 100 46 4 10 80 90 100 10 68 26 100 98 100 62 56 46 88 97 75 93 75 97 75 93 75 97 7 97 39 77 75 97 75 81 75 93 87 93 3 97 23 97 75 81 23 69 23 81 23 25 7 81 7 81 23 85 75 81 99 29 7 29 7 85 7 61 43 97 23 65 7 65 47 65 7 29 87 13 95 49 67 49 55 49 87 49 87 69 51 97 95 33 71 33 71 81 75 69 55 69 91 33 91 33 91 49 91 49 91 49 91 89 75 17 91 81 91 81 55 85 91 49 87 13 71 45 88 74 68 98 52 30 100 94 68 94 68 14 84 90 72 30 92 30 68 58 96 90 88 90 88 78 52 98 88 74 88 94 88 98 88 50 52 98 52 58 52 98 52 98 36 54 20 94 36 10 28 94 36 94 20 94 52 94 56 98 36 94 72 98 56 98 88 78 20 38 100 78 88 90 88 62 4 78 60 62 44 62 80 62 16 62 72 22 36 62 100 78 60 82 60 26 44 46 88 10 100 10 100 10 64 10 100 78 80 25 3 65 39 73 75 97 75 77 75 89 75 81 75 85 75 13 75 97 23 97 75 45 23 97 7 97 23 5 7 77 7 97 75 81 23 65 59 97 7 65 7 97 7 33 7 85 7 85 67 65 7 49 95 85 15 69 7 49 43 65 67 49 91 49 91 49 51 49 51 85 23 69 15 85 91 33 55 85 31 81 55 93 91 17 35 13 91 17 91 17 91 33 91 61 91 69 55 49 91 69 55 93 91 69 71 1 47 89 68 90 84 70 84 50 44 78 88 46 84 78 88 42 84 94 84 30 84 90 52 30 88 30 84 78 88 58 88 98 52 94 88 98 88 94 72 82 88 74 72 98 72 94 52 54 36 90 36 90 72 74 20 94 72 98 20 62 20 98 80 90 84 94 56 26 100 94 72 42 28 94 80 78 4 78 72 62 44 82 100 62 80 62 100 62 80 98 100 62 96 98 76 46 64 10 84 26 100 98 100 82 28 82 92 94 72 78 84 81 39 97 75 41 39 33 75 69 75 81 75 77 75 49 75 85 75 69 75 97 75 93 59 93 23 29 59 45 59 81 7 97 75 97 75 61 7 45 7 29 39 97 99 49 75 5 55 85 87 49 79 65 59 81 79 81 59 49 51 49 91 85 91 49 43 49 3 49 91 85 71 65 91 33 91 33 71 1 23 85 79 17 91 33 91 65 91 33 91 73 91 13 55 45 55 17 91 97 91 13 55 97 79 33 59 73 91 33 32 54 72 90 84 82 68 38 92 46 88 30 36 30 88 62 72 90 84 18 88 30 84 30 96 94 88 50 72 62 88 30 68 74 88 62 88 38 88 62 72 78 36 98 36 94 88 94 96 70 100 62 20 94 56 54 72 94 20 46 68 94 40 54 28 58 4 82 100 98 20 98 84 78 64 98 60 62 84 78 20 42 52 62 96 62 88 22 72 62 100 78 28 46 64 90 68 26 64 46 96 46 64 10 100 98 60 26 64 97 75 85 75 77 39 81 75 1 75 61 75 57 75 97 75 45 75 97 75 81 43 77 95 93 59 93 59 61 59 65 59 97 23 45 23 65 43 57 7 81 7 81 7 29 59 97 43 89 43 65 7 49 43 85 51 49 43 49 71 65 91 49 59 49 99 17 91 49 91 49 99 33 87 33 47 33 71 33 71 81 79 69 91 69 91 17 91 33 91 17 91 33 91 17 91 93 91 49 55 17 87 73 91 21 91 85 91 93 68 82 36 94 96 70 48 78 72 26 88 94 88 86 88 30 84 30 76 30 88 30 16 62 88 94 100 26 88 46 88 98 88 98 88 46 88 30 56 74 72 46 72 94 72 58 72 78 36 58 56 26 72 98 20 62 20 82 20 62 100 6 64 98 72 58 56 98 84 22 56 78 36 98 80 62 36 98 64 98 96 78 56 98 96 62 20 98 64 82 56 62 52 46 64 46 12 46 28 10 76 82 64 46 100 98 80 46 64 65 75 61 23 81 75 41 59 85 75 81 75 41 75 93 75 77 59 57 75 77 59 97 59 81 59 97 59 25 43 65 59 61 43 97 7 97 43 81 43 65 43 65 39 25 43 65 43 85 43 85 43 49 91 81 35 85 87 85 99 85 27 85 43 85 59 49 91 85 83 49 87 65 83 33 55 33 35 33 51 85 91 49 91 69 91 17 55 85 87 17 91 65 55 29 55 49 91 33 91 73 91 69 19 85 91 77 59 77 88 22 88 98 84 30 84 30 88 94 60 22 80 58 48 74 20 54 80 86 84 86 84 78 72 34 88 82 88 90 88 2 56 78 80 38 72 34 72 74 72 50 36 78 72 62 68 94 56 70 20 30 64 34 56 82 68 94 72 98 64 78 56 46 4 82 20 78 48 98 20 98 4 98 4 98 64 46 100 98 64 98 96 98 80 98 40 62 68 82 76 62 28 46 36 82 88 46 88 82 100 10 96 62 28 90 32 62 96 85 99 21 43 93 23 61 3 69 75 41 23 69 75 69 75 65 59 81 7 97 51 85 59 81 59 81 59 97 59 81 99 77 43 97 59 69 99 61 7 97 43 97 43 17 7 81 39 85 99 65 91 85 75 85 67 13 59 85 99 85 55 85 43 85 59 49 19 85 59 69 43 69 71 69 55 49 43 53 91 85 55 69 87 17 23 17 91 29 71 97 19 17 15 69 71 33 99 17 79 29 91 29 91 65 71 49 99 17 20 74 72 14 68 86 60 82 88 30 88 70 88 82 68 30 68 98 88 30 64 94 88 50 84 78 88 46 88 58 88 30 88 98 88 98 88 90 36 94 56 78 72 98 72 90 56 82 72 46 72 98 20 62 56 90 52 42 56 82 56 66 56 78 60 94 72 98 56 98 4 62 4 98 100 98 52 98 84 62 72 98 4 98 72 98 20 98 96 98 80 98 56 46 80 26 12 46 72 46 100 62 88 82 80 46 100 46 88 97 75 93 87 37 75 69 39 41 75 97 23 81 75 97 75 57 63 85 59 69 59 77 75 65 59 97 59 81 55 85 63 57 59 85 43 65 43 41 43 93 43 81 43 65 7 85 35 85 43 65 27 69 59 85 91 69 7 85 83 85 87 85 31 85 91 85 67 65 87 69 95 97 91 69 87 69 71 69 71 61 91 33 83 69 91 17 91 17 71 85 91 49 87 85 87 69 39 49 91 5 91 97 87 45 95 65 71 33 52 90 72 74 52 30 84 30 72 78 68 30 68 90 72 98 88 90 68 90 68 30 88 30 88 78 88 30 88 74 64 30 72 98 48 30 88 78 88 90 72 94 72 58 72 94 72 90 36 30 52 94 56 82 56 70 56 78 72 82 56 94 80 62 20 98 56 54 4 98 56 62 80 98 56 98 68 98 88 98 44 98 44 82 56 82 72 82 84 98 4 78 32 82 76 46 64 46 88 82 64 82 60 62 88 46 100 82 96 77 51 97 91 93 75 85 75 93 55 81 75 85 75 65 59 93 59 57 59 77 39 97 75 77 59 81 43 81 43 69 59 97 47 81 87 85 43 85 43 81 43 77 59 85 43 61 99 49 3 85 43 85 43 85 23 69 51 85 67 85 7 85 91 85 99 85 87 85 91 69 91 69 71 69 51 69 63 69 51 85 55 69 79 65 31 17 91 17 91 85 91 17 91 77 71 17 91 33 91 73 91 69 83 85 71 85 95 13 72 94 88 94 84 34 88 66 88 30 84 50 68 30 68 34 36 30 12 30 88 30 88 70 52 26 16 46 88 58 72 98 88 78 72 62 72 74 72 94 72 74 88 66 72 30 72 78 72 62 52 82 56 90 56 70 56 98 56 78 56 42 16 46 4 78 4 78 52 26 4 98 56 98 72 82 4 98 100 98 60 82 88 46 56 82 64 82 80 82 4 82 64 46 80 82 4 82 24 82 64 98 100 82 100 46 64 66 32 45 95 93 75 85 79 97 43 97 75 93 59 9 75 97 91 9 59 97 59 69 75 45 43 81 43 77 59 61 59 65 59 49 43 17 43 69 43 97 63 85 43 49 43 61 7 69 95 85 43 85 43 45 43 85 15 85 55 85 43 85 91 85 71 33 87 69 87 69 91 69 91 69 55 69 99 69 91 81 79 25 91 69 71 69 91 17 91 85 91 17 91 17 91 69 63 97 59 13 91 85 91 49 91 45 35 29 71 97 88 30 52 74 4 22 44 70 72 58 32 38 80 66 88 78 72 38 88 86 88 30 88 30 52 90 88 30 88 54 36 98 88 98 88 98 88 86 72 46 72 22 72 94 60 62 56 82 88 82 4 78 56 62 56 82 56 78 56 54 56 78 20 22 56 98 4 94 28 98 56 94 88 6 56 94 96 98 80 82 96 98 40 98 64 98 72 98 24 82 52 82 64 82 100 82 80 82 100 82 56 46 96 82 76 10 84 82 44 49 39 57 63 41 39 97 59 93 75 41 75 49 75 33 39 13 59 61 79 25 59 93 91 81 59 81 59 97 43 97 75 97 43 25 43 77 43 29 43 85 43 85 43 85 43 97 79 29 43 81 43 65 71 69 71 49 87 85 83 85 43 69 95 69 43 81 51 69 71 69 95 69 35 69 31 69 91 69 39 81 67 69 59 33 67 69 91 97 91 49 91 13 63 97 91 61 71 17 63 81 91 89 87 69 91 69 91 49 84 70 48 62 68 98 32 50 12 30 68 70 88 30 68 30 60 30 68 30 92 62 96 30 20 62 80 62 72 74 88 30 88 58 56 90 72 94 88 58 88 98 92 70 24 98 72 46 72 62 56 78 56 82 56 98 56 78 56 94 96 18 20 94 56 98 56 98 100 98 4 98 4 98 56 98 72 62 72 98 56 62 36 82 96 62 4 98 84 82 56 82 16 98 48 82 56 82 68 82 44 82 88 62 100 82 96 46 72 65 39 17 99 61 59 33 95 81 91 69 63 85 39 17 43 85 27 89 39 61 23 41 43 97 59 49 43 93 87 65 43 93 99 81 59 65 43 85 43 97 7 85 43 85 43 69 43 85 59 65 59 97 59 49 99 69 91 61 91 65 55 49 59 49 91 9 51 85 71 69 91 69 31 69 3 65 83 17 71 69 91 69 91 69 51 21 91 85 67 97 99 73 99 45 99 65 99 61 91 69 55 61 87 97 19 49 91 33 88 46 88 22 72 58 48 66 88 74 80 98 20 86 88 30 52 98 52 30 36 78 88 70 84 98 88 38 88 70 72 74 88 22 88 42 48 90 72 82 24 90 56 62 56 82 64 86 72 90 92 46 84 90 56 78 56 82 56 78 56 98 4 94 72 78 56 54 88 98 72 98 56 62 36 46 80 82 84 82 28 98 4 26 44 62 4 82 16 82 60 82 56 82 80 98 100 82 76 82 64 46 64 78 64 82 96 46 88 97 75 77 59 97 75 57 43 57 43 97 99 97 75 97 75 25 59 93 75 61 79 97 43 85 59 85 43 49 43 97 59 97 43 85 43 81 55 97 43 77 55 29 99 69 7 69 43 69 55 85 55 97 91 77 7 85 87 85 51 85 7 81 67 81 91 49 71 97 67 69 75 69 91 69 91 69 67 29 79 69 91 69 87 69 71 17 91 69 99 49 91 29 91 69 91 17 75 41 35 81 91 49 91 17 91 85 71 69 84 66 48 74 88 70 88 42 100 86 84 98 100 98 56 54 56 98 88 62 96 78 72 30 72 82 88 30 72 94 88 90 36 90 72 94 20 78 36 82 4 74 72 62 72 66 20 58 72 66 92 98 56 90 84 86 88 98 56 86 72 82 56 98 56 98 4 62 100 62 20 82 60 98 12 98 80 98 36 82 64 82 80 82 100 82 88 82 76 62 44 82 48 82 88 82 32 82 32 82 64 46 80 82 96 82 100 94 68 29 79 61 75 97 39 29 71 97 75 53 59 77 75 81 75 97 43 97 59 17 87 25 23 97 7 61 59 77 43 85 59 85 7 85 55 73 75 65 59 21 71 65 43 81 55 77 51 65 99 85 39 85 79 85 75 69 95 85 15 69 23 85 87 69 87 65 91 85 35 69 71 69 71 69 55 69 51 69 99 69 79 85 99 17 91 69 91 17 71 13 91 77 83 17 95 81 83 85 71 33 87 17 91 65 91 33 91 93 36 30 84 74 64 62 36 82 44 58 72 30 52 30 32 90 88 82 88 38 48 94 88 66 36 86 52 30 52 78 88 30 88 22 68 98 72 78 96 98 80 86 20 98 52 86 100 82 72 98 72 78 56 94 52 78 88 98 84 98 72 94 72 62 44 78 20 98 4 94 88 98 100 98 100 82 100 82 88 98 60 82 88 94 100 98 88 82 96 98 100 82 80 82 64 82 56 82 64 78 96 46 96 98 64 82 100 82 92 93 75 45 23 85 59 97 23 81 31 41 91 65 75 85 59 65 59 81 75 33 75 77 59 93 31 65 99 13 75 65 75 45 67 77 43 25 67 81 51 45 71 73 43 85 59 85 91 49 59 17 87 85 35 85 51 21 51 81 71 69 23 97 87 69 55 69 35 69 51 85 83 69 87 61 99 69 59 69 91 69 67 69 91 77 59 69 91 49 55 33 91 5 75 69 63 85 43 85 83 81 19 69 91 69 91 77 47 93 60 98 84 78 48 90 88 30 52 34 52 90 52 30 68 98 88 46 88 42 24 66 88 94 84 94 92 98 88 86 72 98 72 54 36 82 72 94 88 38 84 98 72 58 56 94 72 94 56 70 56 98 72 94 36 78 4 82 4 98 88 42 80 46 72 82 4 98 56 82 68 34 72 98 36 82 72 98 44 82 88 78 96 38 56 82 60 82 40 82 4 54 96 66 52 98 48 82 12 98 80 98 32 82 28 70 72 46 100 69 87 81 59 77 43 69 75 77 47 45 75 93 23 89 79 97 23 81 7 97 75 81 59 61 59 85 51 85 43 93 7 77 75 53 43 85 75 85 43 65 79 85 43 85 47 45 19 85 59 85 7 49 7 97 43 85 51 17 91 81 23 81 39 69 23 89 71 33 75 69 23 85 87 65 51 17 59 69 91 73 55 29 91 77 83 17 43 33 87 49 31 17 79 85 79 25 91 49 95 69 87 45 91 17 19 5 91 85